##TITLE=(-)-Norepinephrine L-bitartrate monohydrate4
##JCAMP-DX=4.24
##DATA TYPE=INFRARED SPECTRUM
##DATE=9/6/2003
##TIME=13:46:40
##SAMPLING PROCEDURE=99
##ORIGIN=administrator
##CROSS REFERENCE=11308DF
##XUNITS=1/CM
##YUNITS=ABSORBANCE
##RESOLUTION=4
##FIRSTX=4000.1971
##LASTX=599.83669
##DELTAX=-1.9287354
##MAXY=0.11254353
##MINY=0.0036542511
##XFACTOR=1
##YFACTOR=1.0481433e-010
##NPOINTS=1764
##FIRSTY=0.0044072927
##XYDATA=(X++(Y..Y))
4000+42048570+42299816+43510588+45488456+45976892+44399924+41753688+39955392
3985+42448772+47233700+48165316+46382468+46299552+46880492+45362860+41797348
3969+39378904+40445916+42583260+42535108+40027212+37731672+38038488+39284160
3954+39289648+40566628+45534896+51048920+53932284+53765144+50188900+45909468
3938+43757924+42311040+39719252+38234896+40120476+43188392+46736624+49499268
3923+48368952+46310036+46724136+46532568+44278108+42659620+41485268+40750936
3908+42906900+47354104+49065900+46505844+43549772+43196132+45865764+49291572
3892+50448884+49466528+49308068+49278328+47886728+48263504+49936684+48465904
3877+46514584+47827020+51496248+53220508+50152656+47126788+47731084+48143324
3861+46034828+46155948+50674636+56978656+59240536+54106684+48636572+45463236
3846+45042524+46847024+48815992+51041420+53590520+52521616+47836016+43099804
3830+40924028+41531416+43927900+48528368+56434596+61283080+57418360+52914572
3815+50030424+46783332+45382592+48596336+53554740+54937732+56469392+58121084
3800+53641556+47935696+45714188+45013064+42870220+39265212+37106156+38572156
3784+41456332+43552016+45299940+45303180+43369580+42720752+45043772+47694360
3769+48483388+49141368+47526224+44996584+47085568+50781892+50987164+51367472
3753+54293344+57245076+57469944+56909048+56095376+53504204+49908932+48701288
3738+52419068+57840580+55198268+45109432+36823332+35484984+41315888+48917700
3722+50458640+44868260+38999940+38476940+43521816+51530256+55944420+52595908
3707+46821296+44320044+45069480+43227328+38645200+36131680+36619764+40013992
3692+45635528+47767312+42102964+36410720+34864040+36390540+40003024+46100752
3676+51395484+49496272+46683924+45632536+42915884+40005516+37992128+36527820
3661+36105524+36591856+37029404+38918172+45054256+54134204+56784600+48311984
3645+40512756+37428620+36916772+36617768+36985300+39724240+43889204+47758560
3630+50011668+47093812+43411004+43768904+47977920+52713456+51591272+47482260
3614+45881248+45149380+46214384+49675720+48940440+45664996+45433020+45662744
3599+45020552+46032832+46636220+44954140+44001532+45900228+48179304+47550212
3584+46312036+46076528+45592080+44776132+44477312+44470316+46711148+52743232
3568+58022412+55643796+48815236+44669032+45558620+48530120+49172112+48114344
3553+47972180+49892436+53605276+56762824+56961628+54925968+53436408+53455668
3537+53748888+55228552+57922224+58932148+59330224+61690404+64376996+65340316
3522+63900936+61337472+61328196+64228504+66628628+67473480+67232504+66799032
3506+68275584+70608200+69860152+66839700+65434164+65638404+66541528+68464648
3491+70747384+73790312+78841896+83922592+85054576+81929312+80013280+82151496
3476+84126224+83060256+81963824+84241408+88908584+91926504+92606312+93603248
3460+94816464+95985816+98884696+102711840+105525752+107570464+109158992
3447+110078248+111123296+112363984+113589832+117161280+123952592+129907624
3433+132187008+132934408+135118736+139290848+143995952+147799728+149963216
3420+150283584+151165152+155820672+163316096+169563168+173182960+176133808
3406+178383840+179411968+181445200+185103536+189853744+196096976+202655136
3393+206856896+207112112+205983408+206335120+206299808+204405328+203034848
3379+203480192+203621072+202064624+200200352+199448752+200314896+202246672
3366+203685648+204444240+205244736+205499344+205539824+207342112+210946496
3352+215624960+222910976+233139904+243120160+250609280+257783648+267180464
3339+276410688+282241696+286044960+290225440+294788000+299103136+302719456
3325+304751712+306294784+310800032+317145408+319843072+318696608+319570720
3312+325131264+331194752+333556800+332617408+331220448+331886880+333854208
3298+334574688+334674816+336217568+339333216+342985376+346038464+349844608
3285+356185024+361317184+360338784+354640704+350652480+351935040+354152672
3271+354189248+354848640+355191456+352219488+347537440+343150144+340336928
3258+339943872+340763264+342054272+344143168+347407712+350780384+351841216
3244+351247904+351734208+353164736+353620608+353918624+356819648+361457504
3231+365260096+368379072+370359200+370367552+370535552+372140096+372975008
3217+371533312+370004896+370076224+369563680+367698848+367003168+368037376
3204+369434336+371175680+373642848+375538432+375363232+374237216+374138016
3190+374917888+376595296+380258240+383861280+384294528+382534144+380689216
3177+379677056+380276640+381588160+382636544+384551968+387073728+388336704
3163+389066176+390481408+390560064+388218464+386185824+386063296+386257408
3150+385810080+385746176+386232448+386359040+386094208+384988576+382325344
3136+379424512+378046080+378111520+379123296+380779680+381773120+381702720
3123+381263488+380667840+381745472+385233600+388192704+389813856+391463936
3109+392628288+394127552+397411872+399955104+399657504+398608672+398095328
3096+396754368+395130496+395370688+395753536+393093120+388405856+384457184
3082+382066912+379457024+375052320+369883904+364297248+358644064+354621056
3069+351525600+347153632+340892768+334252864+329401408+326964224+325460416
3055+321893056+315568160+309621408+305968224+302990752+298885728+294311264
3042+290539360+287591712+285172320+282246464+277076832+270402816+265370128
3028+263010800+261825712+260283296+257504256+254379648+252318176+250899728
3015+249263024+247023184+243779696+240158688+238123904+238459520+239066736
3001+237913328+235866320+234600880+234468896+234978016+236190752+239817184
2988+244412848+244623728+241525840+240834224+242082432+241383936+237334000
2974+230091792+222163584+218628848+220728848+224951856+228336720+229429760
2961+229507552+230948736+234081072+240441616+250899200+256073024+243352736
2947+220355600+208467312+212488080+221983280+229592400+232914176+230197024
2934+222521616+215368432+211986896+211739952+215724352+225566224+237105696
2920+238803264+224514624+207268944+201927424+204599920+206729968+208066864
2907+210157616+212755584+213784208+210512288+203918880+197908656+194278320
2893+192217808+191023040+190522384+190473536+190305968+189986608+190969520
2880+193419376+195387792+195315040+192807920+189651296+187626160+186424960
2866+186210848+186327856+185377568+184020064+182689328+181334000+180455008
2853+179739744+179198144+179022800+178092496+176035120+174215456+173325888
2839+172125760+169878096+168267696+168660720+169894576+170347456+169882208
2826+168829200+167858224+168220112+168953440+168803216+169080288+169322608
2812+167947472+166374576+166367648+167179584+166859472+164917648+162519520
2799+160470368+159206464+159368656+160206496+160058848+159354800+159518288
2785+160062960+159793728+158569024+156742656+154918640+154107536+154729424
2772+155797072+156095584+155912496+156295344+157020688+156991968+156020432
2758+154954784+154700976+154816352+153740992+152134016+152192688+153511088
2745+154297744+154067776+153693312+153889936+153873760+153502384+153818640
2731+154140832+152660288+150297168+149546112+149841856+149630608+149240384
2718+149008192+148977984+148580912+146985424+145111728+144528336+144788432
2704+144367232+143769888+143649728+142950736+142048176+141803856+141392672
2691+140948560+141443520+142008560+141576160+141088848+141338240+141530912
2677+141202304+140744928+140313408+139676544+139004784+139648448+142219936
2664+144828080+145903920+145782400+145622784+146876656+149225808+150625216
2650+150631904+150478224+150639328+150272848+148799280+147370288+147516688
2637+148325968+147555584+145591840+144570032+144274144+143620048+143305824
2623+143452352+143800576+144984080+145635584+143977776+141771392+141015760
2610+140850960+140556864+140172128+139111296+138469776+140066096+142402192
2596+142804784+141145072+138950144+137854912+138681744+140254128+141062016
2583+142018048+144055776+145210704+143727712+140787056+139205552+140122064
2569+140727040+139062272+137880448+139097504+141230416+143392512+145263392
2556+145229136+142282576+138502976+137681568+139932768+141503056+140743392
2542+138733328+136892192+136199712+135995808+135718640+136014176+136468720
2529+136599664+136688496+135722992+133465664+132733200+135397376+139198400
2515+140838688+139429536+136318640+133820432+133541400+134801072+135325680
2502+134481904+133811776+133564600+132976728+132735232+133614856+134459184
2488+133602360+131733168+130499160+130211400+130793296+131871096+132333880
2475+131679128+131287808+132117392+132102360+130391336+129430096+129857184
2461+131185072+133246040+133493464+131202400+129620448+130629400+132237232
2448+131876704+131037720+131124648+130029448+127979752+126654416+124912824
2434+121958288+120116464+120534944+120118232+118094776+117744632+119106008
2421+119677168+119094048+118024632+117057384+116579032+116716704+117616816
2407+118064784+117027912+116179224+116672520+117277128+116791392+115133424
2394+113338032+112456872+111924000+110973360+110024496+109468848+109659032
2380+110579176+110756480+108949296+105205032+100688008+98346488+99754880
2367+101608944+102496152+106818240+110520328+104233408+94677496+94756840
2353+100908912+102404768+99825472+97691256+96756552+97478112+100490640
2340+103535488+105036080+104852424+103837320+103659312+104794688+107601120
2326+112248264+115920672+115699720+113310616+111358200+110442960+111425440
2313+113368232+113476864+111681432+110587800+110733896+109664616+107204984
2299+106063888+107282288+109994312+112023456+112068608+112705048+116278040
2286+120500872+121525416+119223432+116799784+116281592+115875976+113716488
2272+112465496+113417216+113742888+112821032+112487816+113787296+114900064
2259+114072384+113321024+113003000+111395752+110063032+109957536+109000496
2245+107715696+109023584+112347992+114450920+115088472+116090080+117167120
2232+117562192+117599040+117476832+117312448+116304704+114217352+113782232
2218+115242856+115559016+116449472+119110072+119317224+116932640+115288576
2205+115726384+118297048+120792008+122134800+124550128+127460168+127860288
2191+127590808+129022184+128385528+124895760+123068144+122157184+120479536
2178+120793792+123104784+125847544+127986616+128043416+128054376+131110896
2164+139251776+147428640+138739200+112388096+92995264+91185448+95449752
2151+95130320+91991392+91034216+92216888+93630280+93455464+92371440+90878712
2135+88272264+86304632+87097280+90673984+93360488+93336752+94003656+96013112
2120+97484936+98591816+100361592+102596408+103693744+104208848+105116632
2106+104680192+103864680+104954512+105403640+103253904+101299912+101564896
2093+102675896+103325824+105530568+110439424+113257576+110719704+107818352
2079+110113000+115109296+116094904+113170504+111050736+109058832+107075472
2066+108638704+112096792+113938352+115789368+119345440+121009672+118962904
2052+118292488+120811344+122768720+123425352+124865720+127977192+131932552
2039+136678304+141642320+139528400+128823192+123884136+128304784+130340880
2025+130658448+134201032+134040824+128123160+124202232+126065736+131411184
2012+135741088+136392928+135339696+134193392+131591160+127144616+123820784
1998+123892536+126704832+130937048+133463088+133186128+132921136+133574296
1985+135203184+137764272+140699952+142031328+139040800+136200224+138018064
1971+138985136+136267360+132991024+130001424+127535280+123901952+118290704
1958+115252768+115923208+117310920+118896576+121828320+125361072+126529384
1944+123890248+120063576+117923248+115762960+113568752+114272432+116414936
1931+116657776+115031600+113912968+114390240+115362720+116368200+116026072
1917+113064160+110676072+110838672+111975240+113422296+115002648+115433320
1904+114969384+114664688+113345896+110207088+106791128+104590784+104247088
1890+105471288+106102648+103637288+99040256+96896344+98419072+99755392+99097168
1875+96953488+94858416+95523544+98687408+99505448+96978776+94622656+93667168
1859+92862912+91129144+88757952+87275592+87602240+89187408+90749968+91527040
1844+91174848+89624248+88934576+89456672+88684272+87263488+88538672+91956288
1828+93438544+92956104+92002760+89567456+86569416+84482360+82723136+81585984
1813+81642152+81293816+80095872+80030152+81603112+83287288+83800360+83422344
1798+83106360+83793048+85378520+84905336+81558768+79246920+79390920+80606536
1782+81284496+80218240+77795904+76859872+78314832+78837608+75639064+71804920
1767+68984168+67312072+66889388+65726976+63032732+60293128+58556160+59215236
1751+62090248+63903696+63279984+61663832+60076624+59778704+60084896+61132940
1736+66766156+77156760+82542736+82267120+81984232+84031208+88334576+94237856
1720+102797680+115633176+128268600+134244672+138130928+144169296+154796608
1707+171334944+188356736+200304016+214784480+234518576+246104768+248869600
1693+249463136+251371776+254000720+255966112+257479568+255247120+248001376
1680+241216672+237062288+236276528+237572272+240509392+244646016+245981056
1666+246920976+252062272+259075888+263539008+267503184+273237504+279871712
1653+279945408+273407392+271286080+271410528+271047424+273931104+282325504
1639+294553312+306521344+309353984+301024992+293959936+291036864+292142880
1626+299224480+313477088+329472032+341091712+348071936+343045472+326449504
1612+310103392+295760800+282593376+271463776+263992480+259685600+257516096
1599+258442864+262567440+267310640+270720768+273936896+278505056+284396960
1585+290745984+297065216+303345472+310195232+318313888+323431616+323359552
1572+324612832+326838592+325906560+324133664+323844480+325887584+330559936
1558+326316992+311400640+300135104+292173088+286288416+281411104+278844768
1545+280011744+284764928+291489696+295343840+297774496+303778880+309197472
1531+306318464+300686880+297275616+296072960+299787296+310900640+323604128
1518+332810336+337061376+334786720+329256256+324363104+318186912+295944352
1504+271697696+259792624+254227344+249934000+242343984+234935424+232431664
1491+232551824+228936736+219967792+212425168+209551776+210362112+213109712
1477+217677120+223984608+228470864+226767616+223962176+225659600+231920496
1464+239752800+248310240+261520544+286670560+321824448+348945312+370805120
1450+391718496+413797824+433017408+436445216+421627840+400472192+382590208
1437+362221344+335440864+311547904+291320352+274721920+266107984+264497616
1423+264746416+264670064+264207024+260133936+253422832+247447632+242726288
1410+240475632+242233520+248084480+256948992+267908368+282327104+300439680
1396+322108992+348697568+375961088+401377888+426106240+444660736+452929824
1383+458318976+463666880+461248512+445894048+422396288+401218720+390399744
1369+388888704+392118400+397283328+401648064+397988448+384971232+369768640
1356+357201632+349454144+345643872+340275808+329515072+319011616+317489088
1342+326598400+340096736+346370912+340464832+328988288+317614432+307186208
1329+296579936+285458304+274790784+265944432+259493920+254013072+248274592
1315+243907520+242813248+244178352+243370560+236695936+230260208+233723328
1302+246383360+263449264+288163264+328824928+389191168+463510496+536944512
1288+589299520+605132864+586383936+549009856+508994720+477247808+461000928
1275+462937408+478793824+499155040+515922304+527533952+536941760+546231232
1261+555085952+563400640+572453888+582593408+593797056+608103744+626747136
1248+645039104+653636736+646829440+625941056+595220736+560136320+526337792
1234+496769056+471650752+450379744+432083616+415608704+400595968+386736992
1221+372456224+357899520+346629984+341089568+339109440+337260128+334321952
1207+331525696+333949824+347367392+370271968+394019968+409541536+412528448
1194+405554720+395125632+386303456+380773984+378196768+377890464+379408576
1180+381913664+383770784+383883520+382995744+381879040+380994624+382432352
1167+387406208+394062368+399059744+399577056+396312224+394008864+395372800
1153+395431264+390999712+393614816+413991648+439764864+450624832+445300064
1140+436387264+427703648+411646752+387485408+371988832+386017216+434830624
1126+504068896+572705728+629396608+672445952+699511104+712464896+717447360
1113+711212928+692623936+671440768+645526528+606552128+563732928+524280576
1099+479450592+431520064+398543712+391049696+406420864+431839680+446169344
1086+437617568+422904992+428961568+459642720+504038528+562527360+642959872
1072+737804608+818580864+859519168+857047808+819506048+757271680+685685120
1059+622377152+577600640+550882432+537253312+539258752+570864832+638894848
1045+728339712+812986176+872745344+898669184+886766336+843863360+793355520
1032+755045952+729370240+705033856+673992192+639984960+611407104+586715392
1018+557845696+527138784+508645984+514784576+547391424+602368896+675619008
1005+757685440+828471104+864515456+860309248+837649728+818125120+797040128
991+760005632+712341120+671044672+636321920+596257600+548611776+500643840
978+460904864+433192288+412687520+395186208+380299104+365094976+348090208
964+332496992+320926656+314140928+312946208+316725504+323943264+333395456
951+343687008+351356480+349837600+338568864+324546848+310910496+296890368
937+283748672+275072160+272304768+270826496+266405856+261088112+257230448
924+253909872+252241280+255876800+267037744+288126976+321698240+366053440
910+413335552+450612384+470399168+479495552+483721920+481489888+479849056
897+488270688+496501536+486728896+461156576+433652928+409436096+388975488
883+372953408+359401664+346754368+334302944+320871680+307842976+299748256
870+302440480+320655008+356297184+398965952+418444224+395437792+350486880
856+316822496+308996064+325546944+354507776+376007040+381881984+384296736
843+392834368+401044032+398748672+386097984+370250656+355705952+344569920
829+337705696+333014624+327818400+322797216+318856640+314047680+310694080
816+314516864+325796224+342986752+367941792+402692000+444996736+487157504
802+519670848+537911552+545708480+551598464+562825536+583242432+611214464
789+634441600+638410496+624343168+603217600+579462080+557387712+549390528
775+561163584+584409856+607032192+617205760+611516672+596395008+577031168
762+561460736+558290752+561081216+558932096+555218176+555054400+552800256
748+545023104+537022400+531932352+527634688+525100224+525449568+526064992
735+528331296+535083616+544342336+553522880+559726912+561167424+565116736
721+577872064+592112960+600452544+606824384+617298624+630109696+641246912
708+653136768+667565504+682729408+698682560+716424384+734146368+749443328
694+762311040+776298048+799254016+833435968+873636480+918070912+963718976
681+1002275904+1032903808+1058391488+1064788544+1039231488+995376256+942047872
667+886290816+852439360+831103424+816495872+802851008+781780928+768684992
654+767640960+758055936+743541248+742309184+756720000+787906368+831782528
640+861366336+865065920+874752768+916911360+972083456+992700800+920702784
627+740652992+613570432+664373952+691025280+666288448+871788480+1073741824
613+997111872+878844800+801486144+718814144+726099648+805322240+841421376
600+782138432
##END=
