##TITLE=(S)-(-)-Perillyl Alcohol 1.jdx
##JCAMP-DX=5.00
##DATE=7/27/2010 10:10:50 AM
##DATATYPE=Raman Spectrum
##DATA CLASS=XYDATA
##ORIGIN=ENWAVE
##OWNER=ENWAVE
##NPOINTS=2090
##FIRSTX= 1
##LASTX= 2339
##MAXX= 2339
##MINX= 1
##XFACTOR=1.0000000000
##YFACTOR=1.0000000000
##FIRSTY= 309.110371981494
##DELTAX=1.000000000000
##XUNITS=1/CM
##YUNITS=ARBITRARY UNITS
##XYDATA=(X++(Y..Y))
 1             309.110371981494 
 251           309.110371981494 
 252           1914.62896311178 
 253           4689.8627855119 
 254           7236.96795487499 
 255           9613.38614776861 
 256           11210.2136991389 
 257           11273.2383366696 
 258           11166.3105950225 
 259           11377.009234436 
 260           11564.6888475898 
 261           11749.8843015231 
 262           11978.0367807258 
 263           12233.0984494652 
 264           12430.253191736 
 265           12614.7599415573 
 266           12835.5545644905 
 267           13013.4758516093 
 268           13198.9969338905 
 269           13459.4227480813 
 270           13769.7390733991 
 271           14073.6160668966 
 272           14387.0190699955 
 273           14804.0644510015 
 274           15223.3651275598 
 275           15627.2222043087 
 276           16134.9465951271 
 277           16662.2096319981 
 278           17183.8670393057 
 279           17760.9326865916 
 280           18328.9352731268 
 281           18890.8271350152 
 282           19467.4885468097 
 283           19895.4816937882 
 284           20183.1426989602 
 285           20436.8775550763 
 286           20640.8159446793 
 287           20804.4142335124 
 288           20940.9653382322 
 289           21012.812838811 
 290           20941.5707471861 
 291           20744.9180539041 
 292           20588.8190884871 
 293           20395.4776150455 
 294           20095.2667618893 
 295           19762.0064789713 
 296           19432.3477463596 
 297           19168.1260146262 
 298           19038.6764835603 
 299           18967.6299367699 
 300           18927.1078720121 
 301           18934.4404423962 
 302           18909.9963280843 
 303           18828.7561956531 
 304           18725.4309076705 
 305           18639.5895066603 
 306           18530.7313331489 
 307           18352.0995813019 
 308           18131.3371369244 
 309           17850.6418543082 
 310           17512.3990447706 
 311           17180.0589087501 
 312           16863.4641805172 
 313           16591.3145735058 
 314           16428.134069761 
 315           16373.4030777023 
 316           16334.0464829024 
 317           16258.4487640844 
 318           16452.0846177117 
 319           16919.3483786569 
 320           17441.0869803511 
 321           17969.0837014742 
 322           18484.1391150605 
 323           18948.4610294785 
 324           19298.8886485045 
 325           19560.3200148216 
 326           19779.6078516743 
 327           19954.3998351213 
 328           19980.6345078609 
 329           19813.8503413489 
 330           19535.1355208018 
 331           19280.7250080127 
 332           18968.6209389629 
 333           18438.6585952232 
 334           17901.8858028769 
 335           17405.9888356039 
 336           16887.3215636964 
 337           16387.781277627 
 338           15906.3004718351 
 339           15416.8825687054 
 340           14909.8674272317 
 341           14422.1601323135 
 342           13933.0654230945 
 343           13362.7286615829 
 344           12780.8995422144 
 345           12227.0187185281 
 346           11693.4707203808 
 347           11233.8583140908 
 348           10803.8303217124 
 349           10356.4784028307 
 350           10000.7540333367 
 351           9719.43971473738 
 352           9429.90160132844 
 353           9104.94674090701 
 354           8927.26898061798 
 355           8956.45481813701 
 356           9032.67951724689 
 357           9099.66496253399 
 358           9166.70635030926 
 359           9269.89870899014 
 360           9427.51586672471 
 361           9585.31934221614 
 362           9701.88851557906 
 363           9846.57099591555 
 364           10024.9746411839 
 365           10183.3121922585 
 366           10257.9182506318 
 367           10306.8844255232 
 368           10364.7954051604 
 369           10411.5753316439 
 370           10472.7132503358 
 371           10560.114993682 
 372           10642.5249403698 
 373           10638.8628310721 
 374           10550.2204554513 
 375           10429.5324203525 
 376           10314.610494582 
 377           10126.0046260324 
 378           9910.26562500002 
 379           9834.98983792293 
 380           9758.61856821215 
 381           9680.18552182957 
 382           9694.10495958175 
 383           9662.88131180418 
 384           9510.21076380205 
 385           9261.32978339076 
 386           9013.21672588087 
 387           8832.24136017633 
 388           8737.10503319665 
 389           8703.85637357969 
 390           8695.52667523838 
 391           8613.0727179368 
 392           8407.95368100234 
 393           8285.41511927705 
 394           8228.38877664125 
 395           8123.90085670817 
 396           7979.09908460487 
 397           7845.84848207649 
 398           7753.31316420936 
 399           7698.3919158789 
 400           7721.01313222702 
 401           7822.6913576961 
 402           7933.34816752123 
 403           7933.93016855384 
 404           7966.85367128393 
 405           8135.0728084779 
 406           8268.11695390687 
 407           8503.33801847825 
 408           8883.39623926789 
 409           9241.17761752268 
 410           9559.22158907324 
 411           9867.95069847207 
 412           10190.4519806343 
 413           10516.1010826783 
 414           10842.4271600284 
 415           11151.9975691116 
 416           11416.178248382 
 417           11705.7415033322 
 418           11943.7188249606 
 419           11991.1106976695 
 420           12049.5575820209 
 421           12099.0142867387 
 422           12028.4868301598 
 423           11910.3296961548 
 424           11768.9081826848 
 425           11650.0574958022 
 426           11619.4306766856 
 427           11575.5111265788 
 428           11533.9298373761 
 429           11578.7623194262 
 430           11642.3003537185 
 431           11660.3460391688 
 432           11617.3219473445 
 433           11546.3501050021 
 434           11459.018901385 
 435           11345.5514182269 
 436           11184.5586445255 
 437           10960.4607004618 
 438           10680.8831145785 
 439           10375.7449710668 
 440           10087.4154214992 
 441           9838.30297264895 
 442           9610.49969940588 
 443           9373.80056839429 
 444           9178.12301950799 
 445           8982.46661031741 
 446           8769.18453666071 
 447           8700.49238195024 
 448           8677.80941961828 
 449           8645.80428562337 
 450           8712.33582363861 
 451           8757.85421143251 
 452           8818.52179756238 
 453           9008.91975343362 
 454           9218.72277378284 
 455           9406.8638325091 
 456           9556.55464808747 
 457           9641.23140394701 
 458           9753.53825618864 
 459           9797.25421410731 
 460           9621.93496652891 
 461           9425.95068758992 
 462           9256.0785218307 
 463           9090.65235637321 
 464           8962.88440772123 
 465           8855.36206384983 
 466           8774.27442507386 
 467           8778.06729631475 
 468           8955.61881295044 
 469           9313.0849738013 
 470           9795.76107979197 
 471           10322.3542010627 
 472           10779.2444723686 
 473           11149.4836373022 
 474           11547.1808065431 
 475           12138.4549880587 
 476           12782.4183942117 
 477           13325.676397633 
 478           13828.4082432874 
 479           14143.4631743126 
 480           14248.7113460942 
 481           14213.7769772001 
 482           13900.7563723256 
 483           13497.1560846197 
 484           13175.9029935419 
 485           12814.276477973 
 486           12415.3553721712 
 487           12067.3489644661 
 488           11814.8091025905 
 489           11527.0342124555 
 490           11270.6791449605 
 491           11136.8734117689 
 492           11069.569696571 
 493           10946.323918542 
 494           10766.2408520254 
 495           10593.0888239575 
 496           10391.6216467668 
 497           10223.7981518153 
 498           10141.6757638917 
 499           10138.0782578803 
 500           10283.2677336375 
 501           10563.8258012162 
 502           10920.1389754032 
 503           11340.8959857594 
 504           11721.6299140459 
 505           12155.4598624452 
 506           12915.5859893678 
 507           13952.6615746398 
 508           15065.7153117259 
 509           16178.0000188818 
 510           17470.5722669714 
 511           18835.9755653965 
 512           20141.5047009392 
 513           21412.4734075065 
 514           22810.9620361639 
 515           23877.148778488 
 516           24255.4864534701 
 517           24201.4893713023 
 518           23706.276937815 
 519           22772.3223171594 
 520           21555.2847780506 
 521           20326.5240741998 
 522           19062.2073242785 
 523           17841.3089345654 
 524           16911.6402648492 
 525           16127.9607482262 
 526           15515.0122446754 
 527           15059.5730149748 
 528           14518.5960989701 
 529           14352.2642647861 
 530           14601.4457140358 
 531           14867.14176645 
 532           15237.9742373825 
 533           15645.0304799113 
 534           16018.2286720971 
 535           16408.9634186603 
 536           16705.6586770416 
 537           16884.0920797864 
 538           16964.7991332557 
 539           16887.8007568296 
 540           16697.6186858587 
 541           16496.216336939 
 542           16307.8336651866 
 543           15929.0161436089 
 544           15431.784142529 
 545           14962.8697421156 
 546           14511.3321708304 
 547           13982.9785443469 
 548           13421.6733386074 
 549           12908.0141496348 
 550           12379.0530138046 
 551           11856.1006666772 
 552           11354.6112411196 
 553           10867.9313720653 
 554           10448.1558387603 
 555           10111.6464831358 
 556           9812.88158888988 
 557           9487.46504852117 
 558           9190.4083218758 
 559           8891.52183287381 
 560           8542.43930535896 
 561           8198.45550836391 
 562           7845.54356880753 
 563           7478.12343570401 
 564           7111.9391502789 
 565           6735.01925498154 
 566           6365.90255356518 
 567           5996.12900898392 
 568           5620.82884403733 
 569           5403.0824754743 
 570           5275.14652959524 
 571           5131.43272753881 
 572           5044.36650850011 
 573           4978.94711514259 
 574           4914.00199214822 
 575           4848.58539934011 
 576           4752.05516216339 
 577           4657.09472383291 
 578           4590.71832745073 
 579           4543.0878482141 
 580           4494.4938058675 
 581           4450.55046645651 
 582           4419.35927592413 
 583           4399.61232069019 
 584           4402.74688121321 
 585           4417.71302499355 
 586           4426.25874833058 
 587           4429.26762555315 
 588           4446.42646280392 
 589           4429.24254922862 
 590           4344.45549296589 
 591           4290.30759957149 
 592           4306.33238219957 
 593           4342.82575216748 
 594           4347.59877572138 
 595           4383.25583559547 
 596           4358.21686867454 
 597           4249.51032635922 
 598           4165.50433940837 
 599           4109.43286900465 
 600           4078.38886337342 
 601           4076.15102021986 
 602           4094.12021686626 
 603           4091.82330472507 
 604           4079.45548380537 
 605           4075.51547382831 
 606           4059.6402791484 
 607           4047.33664696419 
 608           4021.43230940588 
 609           3967.77453422917 
 610           3921.50180996798 
 611           3817.14780838302 
 612           3728.43297928414 
 613           3757.27931920791 
 614           3761.87978182792 
 615           3841.2727517609 
 616           3970.27732420521 
 617           3991.55599396423 
 618           4003.75931675851 
 619           3971.13845140188 
 620           3891.63852634167 
 621           3858.28510795861 
 622           3850.444762323 
 623           3860.03490707302 
 624           3876.03023395236 
 625           3869.59626714213 
 626           3850.03345500614 
 627           3865.04825541316 
 628           3911.17727320468 
 629           3921.85005603408 
 630           3963.46237016215 
 631           4057.94881589673 
 632           4168.31539300504 
 633           4259.15696058131 
 634           4350.05444211382 
 635           4433.04142027408 
 636           4496.75682126431 
 637           4570.85237783366 
 638           4656.37152546727 
 639           4736.04177310949 
 640           4819.17293000048 
 641           4974.63604489825 
 642           5253.90315111772 
 643           5607.51149756389 
 644           5939.66354482413 
 645           6205.60942347992 
 646           6312.83157968093 
 647           6273.41123963391 
 648           6168.23801155073 
 649           6001.50978212653 
 650           5810.48190031169 
 651           5631.63925340155 
 652           5491.59905534589 
 653           5426.8998767479 
 654           5457.1193110513 
 655           5527.93375687821 
 656           5592.5920864031 
 657           5735.68231383165 
 658           5866.25210117102 
 659           6059.9301513205 
 660           6459.79877286417 
 661           6845.96624799419 
 662           7180.86087674774 
 663           7499.95459941627 
 664           7804.34359640269 
 665           8069.21930262822 
 666           8288.51205515201 
 667           8472.61338973315 
 668           8629.01394180955 
 669           8747.7758888979 
 670           8858.39255884644 
 671           8989.58019272983 
 672           9115.8941385883 
 673           9156.10312158365 
 674           9204.99954879282 
 675           9210.61756733998 
 676           9020.70858141606 
 677           8731.18679141726 
 678           8444.52302278651 
 679           8181.27501973639 
 680           7961.60768051328 
 681           7917.08826268807 
 682           8006.68687094267 
 683           8135.63295270617 
 684           8255.40870758548 
 685           8383.89367036968 
 686           8534.66587512319 
 687           8672.34048104832 
 688           8820.81291078027 
 689           9139.10698295457 
 690           9514.22506402109 
 691           9853.83863256812 
 692           10195.8048846782 
 693           10618.3312703277 
 694           11062.2488949373 
 695           11519.6690744461 
 696           11895.8066553407 
 697           11969.7246238284 
 698           12060.2174534958 
 699           11994.0735211705 
 700           11559.9408662383 
 701           11086.2941935892 
 702           10614.7955618494 
 703           10159.7819557987 
 704           9714.24390988119 
 705           9212.21926138498 
 706           8668.68927481016 
 707           8255.19681513889 
 708           7991.70892679361 
 709           7681.74100547462 
 710           7333.2559163825 
 711           6956.11119846706 
 712           6579.97497399067 
 713           6275.47825387751 
 714           6085.44351084701 
 715           5918.84309667333 
 716           5685.13124612765 
 717           5417.66079055007 
 718           5269.29210595488 
 719           5192.28469740047 
 720           5152.5298060166 
 721           5126.4582947948 
 722           5010.40947361963 
 723           4940.8964705198 
 724           4938.67988103626 
 725           4946.23403852112 
 726           4999.25420519086 
 727           5090.80862493921 
 728           5209.94489129375 
 729           5304.20692122242 
 730           5310.52398800366 
 731           5334.11054730752 
 732           5399.99817795942 
 733           5535.60791963333 
 734           5788.35505602306 
 735           6077.33337953066 
 736           6400.7667209479 
 737           6702.6507448214 
 738           6989.02361175081 
 739           7535.74013922822 
 740           8262.60166162299 
 741           9079.87535959637 
 742           10021.558728951 
 743           11095.4397851932 
 744           12084.6809051731 
 745           13376.522058234 
 746           15143.1219067427 
 747           16863.2131907668 
 748           18684.2361833951 
 749           20537.0523438682 
 750           22255.1361164415 
 751           23757.4458286182 
 752           24979.4990207149 
 753           26250.5726572969 
 754           27288.1118519246 
 755           27686.4194146032 
 756           28040.2302127872 
 757           28420.2041050484 
 758           29057.2472888453 
 759           30059.0387715142 
 760           31061.7886310628 
 761           32053.9569083271 
 762           32971.2021705387 
 763           33805.8457746047 
 764           34651.7409723525 
 765           35477.5044845368 
 766           36398.3145542144 
 767           37347.5812537187 
 768           38129.3839632111 
 769           38680.9718464008 
 770           38680.0212196776 
 771           37919.9729549536 
 772           36394.9295835537 
 773           34176.8308175745 
 774           31321.8295031829 
 775           28171.9839453609 
 776           25064.2095754835 
 777           22159.5598405841 
 778           19593.8581316151 
 779           17461.0206415749 
 780           15834.6774811654 
 781           14718.7900612086 
 782           14001.2067726404 
 783           13557.8331047641 
 784           13312.5901636195 
 785           13190.4544739805 
 786           13108.8509639323 
 787           13065.0189595291 
 788           13099.4367314582 
 789           13263.5104479361 
 790           13571.4612870737 
 791           13969.8399780134 
 792           14407.2932917353 
 793           14795.4177247212 
 794           15047.665226675 
 795           15191.2704009423 
 796           15400.4202576063 
 797           15308.5825692158 
 798           14959.7943518167 
 799           14678.507879092 
 800           14178.6091457961 
 801           13659.304260926 
 802           13087.0261671743 
 803           12403.0269817233 
 804           11841.8905648779 
 805           11482.5477216402 
 806           11267.9551527502 
 807           11095.9857540084 
 808           10937.8120983348 
 809           10873.6986310887 
 810           10829.1474743655 
 811           10765.3629740908 
 812           10716.3701304728 
 813           10690.0008610494 
 814           10572.6875029419 
 815           10381.6751039835 
 816           10216.4415935295 
 817           10053.9595159244 
 818           9702.09166423808 
 819           9308.18898907727 
 820           8898.3675184323 
 821           8446.08319288865 
 822           8001.79686434762 
 823           7559.01475214272 
 824           7070.86657159651 
 825           6631.30548315172 
 826           6296.28140551854 
 827           5939.30761574722 
 828           5691.51735961132 
 829           5464.43585932827 
 830           5226.18827525773 
 831           5068.82050121234 
 832           4905.94750280488 
 833           4747.3456313804 
 834           4573.57291058024 
 835           4423.79766169445 
 836           4396.12956838131 
 837           4362.69365469828 
 838           4291.53857015867 
 839           4201.07722855836 
 840           4118.00107578945 
 841           4081.0640838845 
 842           4071.57049960351 
 843           4055.24859350724 
 844           4028.58355804616 
 845           3999.22422871938 
 846           3942.44960562433 
 847           3910.93451638233 
 848           3884.60346698472 
 849           3837.72310661284 
 850           3810.92651898281 
 851           3812.07313550893 
 852           3873.52016690056 
 853           3922.10185472033 
 854           3922.63114875931 
 855           3966.7422107244 
 856           3894.31199395688 
 857           3872.19831103351 
 858           3935.02522036511 
 859           3957.97454890995 
 860           4059.24143103357 
 861           4191.60240458585 
 862           4291.14758964704 
 863           4347.25322485137 
 864           4415.92097659953 
 865           4578.46757824664 
 866           4727.36947204858 
 867           4932.31861668023 
 868           5224.86687983549 
 869           5500.99414120669 
 870           5932.02323636253 
 871           6506.05477746685 
 872           7191.81144461628 
 873           7964.67285578193 
 874           8747.17978472534 
 875           9492.99922703457 
 876           10155.3744937244 
 877           10723.9557948651 
 878           11266.9743582145 
 879           11873.079428398 
 880           12464.5472122463 
 881           13035.1726024051 
 882           13546.5041039501 
 883           13886.468588301 
 884           14041.8252578488 
 885           14264.3191224305 
 886           14149.518986261 
 887           13557.0787979077 
 888           12777.5436667483 
 889           11819.3528375513 
 890           10899.2292277972 
 891           9971.03836466977 
 892           8996.35523455121 
 893           8114.44165315469 
 894           7427.53171791338 
 895           6960.16772910319 
 896           6643.17429460718 
 897           6365.26336471418 
 898           6083.13313068684 
 899           5873.92891976734 
 900           5721.17895661507 
 901           5548.41182959683 
 902           5432.87823639027 
 903           5461.18380690043 
 904           5457.45013040207 
 905           5644.64612216729 
 906           5899.78618611894 
 907           6180.91780032719 
 908           6673.32421050857 
 909           7259.95436076655 
 910           7873.79377185607 
 911           8480.26755549473 
 912           8831.48125639554 
 913           8811.13367473142 
 914           8844.294488262 
 915           8634.75707363096 
 916           8313.23619834843 
 917           8002.90641418174 
 918           7620.06640625055 
 919           7335.23792496229 
 920           7110.36362414209 
 921           6921.10750777643 
 922           6758.12526626887 
 923           6616.13530202807 
 924           6537.28292357852 
 925           6533.87432809542 
 926           6467.02260694226 
 927           6337.28369542955 
 928           6250.28715000359 
 929           6199.54011601525 
 930           6245.02767449018 
 931           6291.3015668586 
 932           6283.17064494182 
 933           6217.59315489571 
 934           6053.40227534376 
 935           5838.09495970465 
 936           5643.576393523 
 937           5463.84768676624 
 938           5259.1996711297 
 939           5059.96132400726 
 940           4958.81314090115 
 941           4915.16536392367 
 942           4917.40043480896 
 943           4945.19206139005 
 944           4955.63913477126 
 945           5012.83960210843 
 946           5164.30914901629 
 947           5333.82847799472 
 948           5536.36645195858 
 949           5825.14426256759 
 950           6085.79628953862 
 951           6398.16461710658 
 952           6594.87901331681 
 953           6715.66839003271 
 954           6863.92089536266 
 955           6884.71000220786 
 956           6933.44872124892 
 957           6812.07168072676 
 958           6645.28748209082 
 959           6597.84359740816 
 960           6529.94040934842 
 961           6522.15695610918 
 962           6469.3886209779 
 963           6393.67255354316 
 964           6336.68457656927 
 965           6267.42798709636 
 966           6206.72581864135 
 967           6151.4930947452 
 968           6189.30154040563 
 969           6323.69056447002 
 970           6484.74503774401 
 971           6664.05013130509 
 972           6860.55612532401 
 973           7076.13101303055 
 974           7386.78081435292 
 975           7771.39526277169 
 976           8137.39280508236 
 977           8563.39220121372 
 978           8933.98155090941 
 979           9221.39512098125 
 980           9469.34279657374 
 981           9729.3736205576 
 982           10026.4675198212 
 983           10274.2200318297 
 984           10543.5161934703 
 985           10829.2442939186 
 986           11105.6842112197 
 987           11418.2340448378 
 988           11735.9481171617 
 989           11968.6049550211 
 990           12129.4945295064 
 991           12240.1249599581 
 992           12316.7152645857 
 993           12383.5396939206 
 994           12329.2601245283 
 995           12214.9009385871 
 996           12136.5522301742 
 997           12115.09603116 
 998           12113.8949505432 
 999           12098.96979921 
 1000          12063.6303420105 
 1001          12121.7241305224 
 1002          12176.6169882863 
 1003          12129.119759256 
 1004          12100.6247165375 
 1005          12049.3715639636 
 1006          12072.4183242618 
 1007          12038.325965811 
 1008          11886.0162362425 
 1009          11733.8073627068 
 1010          11624.2662000415 
 1011          11600.4957773615 
 1012          11619.104238399 
 1013          11649.6144351053 
 1014          11662.8116097233 
 1015          11652.9515097888 
 1016          11669.6225940989 
 1017          11576.2519475166 
 1018          11457.330712167 
 1019          11318.6066781424 
 1020          11135.696522908 
 1021          10950.0177692641 
 1022          10645.4476595085 
 1023          10350.6011498617 
 1024          10052.7227712259 
 1025          9811.14424648143 
 1026          9659.79626740112 
 1027          9462.93659927594 
 1028          9339.47184491042 
 1029          9412.39079033034 
 1030          9512.37665889793 
 1031          9569.35848850484 
 1032          9625.86458360235 
 1033          9591.15857680384 
 1034          9554.28308067336 
 1035          9563.41651299468 
 1036          9592.36235791249 
 1037          9607.67760706067 
 1038          9606.12048103209 
 1039          9664.63084703097 
 1040          9997.71716993568 
 1041          10533.3662915089 
 1042          11182.6269143307 
 1043          11920.1651102933 
 1044          12723.8831841958 
 1045          13539.0523729126 
 1046          14275.515221588 
 1047          15059.4908778157 
 1048          15602.978869972 
 1049          15778.3331854795 
 1050          15619.029117196 
 1051          14884.4026060316 
 1052          14073.2776109257 
 1053          13331.3731646762 
 1054          12583.6716790264 
 1055          11870.3202420248 
 1056          11226.5960066879 
 1057          10572.5662570384 
 1058          10121.2527791356 
 1059          9776.86811202378 
 1060          9691.58041216072 
 1061          9933.07355508403 
 1062          10379.7516339206 
 1063          10964.8543044144 
 1064          11502.0944115363 
 1065          12428.8084293978 
 1066          13509.0360782998 
 1067          14541.6201660824 
 1068          15349.1686819031 
 1069          15640.0116273868 
 1070          16009.4549124139 
 1071          15785.9753107092 
 1072          15074.2678180708 
 1073          14037.768388769 
 1074          12711.9826098844 
 1075          11427.879811595 
 1076          10310.2639937317 
 1077          9312.21472344047 
 1078          8414.55189895973 
 1079          7661.21733592739 
 1080          6971.85933772637 
 1081          6295.59485573627 
 1082          5837.05297427564 
 1083          5486.28493402118 
 1084          5244.6968985761 
 1085          5066.14381256805 
 1086          4948.43890105003 
 1087          4876.0061695135 
 1088          4804.79710612999 
 1089          4983.27286410222 
 1090          5191.39828732533 
 1091          5397.76262105915 
 1092          5614.92618058644 
 1093          5828.64443652965 
 1094          6079.38708503871 
 1095          6357.96526120281 
 1096          6744.66615898466 
 1097          7190.53359391949 
 1098          7606.99288109905 
 1099          7968.98798956952 
 1100          8241.01109280712 
 1101          8375.20885227862 
 1102          8516.00637976334 
 1103          8637.64383704706 
 1104          8768.00016578817 
 1105          8824.4827334284 
 1106          8749.56908257345 
 1107          8659.87542108616 
 1108          8615.90653190258 
 1109          8614.73251704273 
 1110          8328.33410228964 
 1111          7917.90456835506 
 1112          7561.61719958577 
 1113          7172.0809940456 
 1114          6759.32859275356 
 1115          6295.86877559487 
 1116          5772.41301783074 
 1117          5390.36276394751 
 1118          5075.6351608418 
 1119          4790.3986241412 
 1120          4616.83188491523 
 1121          4414.56231812181 
 1122          4357.19990710098 
 1123          4404.02512854567 
 1124          4447.21739295644 
 1125          4498.90256638755 
 1126          4575.50815082449 
 1127          4616.45278758444 
 1128          4660.19483954392 
 1129          4847.22561838016 
 1130          5036.16386058973 
 1131          5380.70911520388 
 1132          5957.08187135766 
 1133          6589.64660793157 
 1134          7220.12305814849 
 1135          7944.28662125726 
 1136          8625.23096244967 
 1137          9293.30898095441 
 1138          9768.08508814915 
 1139          10143.0815864575 
 1140          10462.8610412085 
 1141          10446.7543554795 
 1142          10259.9692456368 
 1143          9850.40044918938 
 1144          9386.96407481775 
 1145          8946.80611579572 
 1146          8581.17989760939 
 1147          8259.07960193014 
 1148          7959.90464317235 
 1149          7973.21373127437 
 1150          8182.03978419885 
 1151          8543.75996843534 
 1152          9044.05907562482 
 1153          9558.0770121472 
 1154          10136.6254849352 
 1155          10951.6219987496 
 1156          11720.9551795501 
 1157          12053.5955073342 
 1158          12118.526797322 
 1159          11926.3168107262 
 1160          11717.2044212257 
 1161          11293.3365006069 
 1162          10241.5922967546 
 1163          9145.62265597104 
 1164          8189.73759033644 
 1165          7492.80227600775 
 1166          6932.63108282443 
 1167          6379.61897399605 
 1168          5894.4176487948 
 1169          5566.33640319659 
 1170          5373.2015554189 
 1171          5299.14345973021 
 1172          5151.17277059897 
 1173          4926.76491635164 
 1174          4811.6662239199 
 1175          4759.36679575873 
 1176          4718.7342096968 
 1177          4793.93917812111 
 1178          4845.14164399406 
 1179          4934.30858838068 
 1180          4989.66192079762 
 1181          5010.42625232831 
 1182          5010.69134201666 
 1183          4975.87786483949 
 1184          4979.34181374469 
 1185          5122.47305265638 
 1186          5265.74051266081 
 1187          5300.25066145588 
 1188          5484.61294469879 
 1189          5694.16221182948 
 1190          6039.15297664803 
 1191          6577.73904764858 
 1192          7093.78375408551 
 1193          7740.71084106529 
 1194          8212.72064817029 
 1195          8662.20548027476 
 1196          9023.44487126192 
 1197          9320.07339529987 
 1198          9594.65009534365 
 1199          9771.64980375317 
 1200          9916.66612562985 
 1201          10207.1482899854 
 1202          10469.9955973807 
 1203          10688.0652694087 
 1204          10861.4107741527 
 1205          10838.5263038716 
 1206          10674.8072668801 
 1207          10449.2204961642 
 1208          10082.3605422644 
 1209          9793.78099447805 
 1210          9499.97655295531 
 1211          9161.59170783625 
 1212          9057.93178593184 
 1213          9083.38435581528 
 1214          9124.38471916308 
 1215          9189.37514327244 
 1216          9139.95114437057 
 1217          9104.3054632568 
 1218          9175.61191066009 
 1219          9298.95803420726 
 1220          9332.55192328549 
 1221          9324.0187953768 
 1222          9317.77883116677 
 1223          9324.5279432613 
 1224          9373.8585919724 
 1225          9410.14069593309 
 1226          9526.67895361204 
 1227          9409.2333527557 
 1228          9220.10759859831 
 1229          9149.42159041807 
 1230          9163.87421811824 
 1231          9191.93164575204 
 1232          9201.20996991916 
 1233          9226.14848861775 
 1234          9405.46041021893 
 1235          9587.3314815605 
 1236          9716.09754260027 
 1237          9824.81298959536 
 1238          10002.7918744399 
 1239          10254.0975610888 
 1240          10499.2576481898 
 1241          10661.9277864564 
 1242          10704.1151822339 
 1243          10769.1918629249 
 1244          10539.6081826502 
 1245          10147.9483154102 
 1246          9722.18720830017 
 1247          9318.98574711699 
 1248          8969.67486341733 
 1249          8727.75361055709 
 1250          8686.7186089178 
 1251          8708.47257921338 
 1252          8810.78671407895 
 1253          8818.72512595237 
 1254          8667.78212482102 
 1255          8444.05978967353 
 1256          8189.34224461401 
 1257          7880.93601361543 
 1258          7506.11405569974 
 1259          7125.59535854431 
 1260          6884.44524755014 
 1261          6665.56930996387 
 1262          6498.35573777026 
 1263          6410.78442126607 
 1264          6311.71829619158 
 1265          6320.99460356681 
 1266          6537.56160063339 
 1267          6781.22135186944 
 1268          7058.51894013263 
 1269          7632.56460425298 
 1270          8448.64152609935 
 1271          9457.46728095215 
 1272          10309.5290316079 
 1273          11168.0571275138 
 1274          11787.3298821225 
 1275          12158.3638957878 
 1276          12445.9998720071 
 1277          12223.573483068 
 1278          12004.5085737439 
 1279          11834.6864447322 
 1280          11844.2892516379 
 1281          12160.6758677409 
 1282          12519.2893384944 
 1283          12994.8973931014 
 1284          13586.8413430039 
 1285          14141.7076273491 
 1286          14638.710400872 
 1287          14921.6166623511 
 1288          15223.8053971636 
 1289          15255.6278239193 
 1290          15109.4298747594 
 1291          14849.4082416778 
 1292          14542.9384507794 
 1293          14151.0186591975 
 1294          13667.2562968275 
 1295          13164.3713757934 
 1296          12558.3447403446 
 1297          11788.1955018714 
 1298          10986.6456560675 
 1299          10151.8325404849 
 1300          9620.028291429 
 1301          9125.11411330981 
 1302          8797.97311802131 
 1303          8607.24718063467 
 1304          8417.29459469538 
 1305          8302.28189906595 
 1306          8177.92690157708 
 1307          8081.90160837044 
 1308          7966.46104279475 
 1309          7832.45418504504 
 1310          7768.66482818566 
 1311          7688.61537882139 
 1312          7619.00587968904 
 1313          7542.45931652346 
 1314          7389.79043754056 
 1315          7250.29979816523 
 1316          7214.91867452857 
 1317          7207.99543615586 
 1318          7227.05278887439 
 1319          7294.78875820894 
 1320          7401.62576783868 
 1321          7658.01552153169 
 1322          8070.53125335056 
 1323          8451.62303866758 
 1324          8845.2259532681 
 1325          9331.42977450615 
 1326          9765.89071127892 
 1327          10130.7128889134 
 1328          10459.9032735481 
 1329          10534.6834961447 
 1330          10400.0551238541 
 1331          10267.8213088418 
 1332          9951.69126637348 
 1333          9596.60539239649 
 1334          9250.25032576723 
 1335          8872.84108363906 
 1336          8484.63422140272 
 1337          8133.30074833757 
 1338          7851.18500038061 
 1339          7562.94762917239 
 1340          7456.42728345157 
 1341          7374.97918091386 
 1342          7474.88420203879 
 1343          7593.41663451486 
 1344          7808.48914830295 
 1345          8041.92018153544 
 1346          8323.58186182301 
 1347          8687.39737269677 
 1348          9057.77874400789 
 1349          9381.68091433232 
 1350          9560.83925283769 
 1351          9747.93864726647 
 1352          9720.8620319001 
 1353          9668.48409590523 
 1354          9586.83576855412 
 1355          9470.13866447523 
 1356          9326.64162273885 
 1357          9173.07334750158 
 1358          9082.6656043619 
 1359          9144.07546498988 
 1360          9249.97788173259 
 1361          9271.83870622683 
 1362          9382.69856733806 
 1363          9673.38420743702 
 1364          10178.0532897179 
 1365          10753.7251418305 
 1366          11291.8040025985 
 1367          11865.7763443584 
 1368          12535.7452445754 
 1369          13570.2085348283 
 1370          14782.8385758808 
 1371          15953.0975718934 
 1372          16974.0343779283 
 1373          17664.7826077565 
 1374          18188.8874381477 
 1375          18486.459328711 
 1376          18465.3339843758 
 1377          18043.2221679346 
 1378          17627.980713204 
 1379          17029.0727381585 
 1380          16453.1901592764 
 1381          15956.26016919 
 1382          15638.1952111998 
 1383          15412.3331642945 
 1384          15204.2529074026 
 1385          15010.2267472425 
 1386          14906.5303302851 
 1387          15163.3912439628 
 1388          15488.8804673685 
 1389          15800.2729530167 
 1390          16099.620006972 
 1391          16272.1984530449 
 1392          16429.8833558389 
 1393          16618.4203173564 
 1394          16836.6253130783 
 1395          16919.4129759973 
 1396          16767.4516890046 
 1397          16440.0265015907 
 1398          16014.2424526782 
 1399          15590.7257840909 
 1400          15243.5424734502 
 1401          14901.722274829 
 1402          14542.4600443882 
 1403          14323.9805464769 
 1404          14224.0511483318 
 1405          14123.2670083338 
 1406          14239.8003235645 
 1407          14372.3786915214 
 1408          14652.6084838318 
 1409          15007.164856086 
 1410          15447.4518499515 
 1411          15978.5743104126 
 1412          16489.1075151819 
 1413          17055.5430641576 
 1414          17732.0180387409 
 1415          18310.399355772 
 1416          18707.2875666448 
 1417          19182.8723678657 
 1418          19747.2782623731 
 1419          20392.4659618507 
 1420          21104.4431050791 
 1421          22068.4326825494 
 1422          23866.0838325236 
 1423          26243.3742342248 
 1424          29246.1708787359 
 1425          32227.7112415487 
 1426          36127.18030308 
 1427          40835.8126043505 
 1428          45379.8767187492 
 1429          49517.3484619007 
 1430          52572.5305095207 
 1431          54042.3222987112 
 1432          53544.9345567609 
 1433          53076.1637116363 
 1434          50595.2572277518 
 1435          47767.4847302484 
 1436          44549.9571018385 
 1437          41335.6137647743 
 1438          38128.0150467672 
 1439          35085.787763187 
 1440          32364.2656811892 
 1441          30224.2369668137 
 1442          28591.563771214 
 1443          27297.4503366979 
 1444          26460.2288050835 
 1445          26160.1196929584 
 1446          26006.2868307174 
 1447          26050.7399923854 
 1448          26857.3294056579 
 1449          27858.7437921315 
 1450          28933.1952392768 
 1451          30007.6327873208 
 1452          30502.0596737117 
 1453          30605.7880633331 
 1454          30339.7373557839 
 1455          29483.3082308373 
 1456          28623.2669242301 
 1457          27417.5869075936 
 1458          25893.2261672302 
 1459          24346.1928549269 
 1460          22745.999039726 
 1461          21192.5881650734 
 1462          19702.6863310439 
 1463          18166.8095555684 
 1464          16695.8509108916 
 1465          15268.7464541193 
 1466          13962.6115045887 
 1467          13026.6932123094 
 1468          12110.9794100748 
 1469          11211.4723422904 
 1470          10410.789367797 
 1471          9670.67856466622 
 1472          8926.97393521874 
 1473          8414.88440962602 
 1474          7898.29141036539 
 1475          7513.82777272597 
 1476          7149.13721409357 
 1477          6807.17375220317 
 1478          6476.42535548767 
 1479          6280.54819858706 
 1480          6126.60981206084 
 1481          5913.07437228429 
 1482          5650.4744940955 
 1483          5455.84007361318 
 1484          5391.66468720795 
 1485          5362.84919155867 
 1486          5310.64693949118 
 1487          5236.36102006177 
 1488          5101.97539662328 
 1489          4881.87137585213 
 1490          4829.0852392617 
 1491          4817.11185727046 
 1492          4716.6550982732 
 1493          4582.26788194307 
 1494          4449.15259536621 
 1495          4402.27976846764 
 1496          4409.45354339186 
 1497          4349.99399506847 
 1498          4222.2373693816 
 1499          4105.12600893696 
 1500          4026.77807481332 
 1501          4055.37659626238 
 1502          4141.55697853439 
 1503          4111.65563422522 
 1504          3985.45154733806 
 1505          3835.63213376756 
 1506          3786.89022537898 
 1507          3817.75429107974 
 1508          3784.3400354922 
 1509          3765.42612351734 
 1510          3802.92553113568 
 1511          3777.80938648595 
 1512          3714.18551448429 
 1513          3684.5972263249 
 1514          3677.47700488262 
 1515          3652.51986973794 
 1516          3519.68615110901 
 1517          3409.63674570781 
 1518          3431.86770787141 
 1519          3489.91581696819 
 1520          3475.64751277069 
 1521          3485.74591296719 
 1522          3398.40035263987 
 1523          3355.54596590183 
 1524          3293.9089834863 
 1525          3222.21389937492 
 1526          3241.04040711938 
 1527          3238.66704545268 
 1528          3229.97529021151 
 1529          3216.4651802386 
 1530          3170.51933561031 
 1531          3119.10011104807 
 1532          3142.25415960937 
 1533          3224.78934334007 
 1534          3268.70949165059 
 1535          3283.92776058027 
 1536          3265.20408840925 
 1537          3257.5803196074 
 1538          3226.19308048611 
 1539          3174.17256275258 
 1540          3182.7656414099 
 1541          3179.4369607087 
 1542          3148.28108647137 
 1543          3112.9497994871 
 1544          3076.48577344914 
 1545          3092.44811947075 
 1546          3120.55224403547 
 1547          3138.63796759799 
 1548          3176.46257131664 
 1549          3135.07819826868 
 1550          3078.40223224914 
 1551          3180.44575288659 
 1552          3226.70011199012 
 1553          3215.60204520578 
 1554          3182.4817975914 
 1555          3119.16690485606 
 1556          3080.92566089184 
 1557          3044.36979450432 
 1558          3078.02209025379 
 1559          3187.70239976751 
 1560          3384.53697376451 
 1561          3345.82618092997 
 1562          3300.94000230682 
 1563          3179.15441905554 
 1564          3157.40620398942 
 1565          3127.42774816481 
 1566          3189.78639168045 
 1567          3229.72249832987 
 1568          3271.67432560643 
 1569          3269.30072677239 
 1570          3279.15485217826 
 1571          3326.41183861838 
 1572          3392.00964246517 
 1573          3474.56887325842 
 1574          3448.80867370225 
 1575          3426.82469269353 
 1576          3418.68140654613 
 1577          3370.33780507281 
 1578          3342.75934209696 
 1579          3303.10951886763 
 1580          3297.0743526377 
 1581          3302.81309977649 
 1582          3342.02562947566 
 1583          3363.44193456728 
 1584          3372.78398475435 
 1585          3313.7120956847 
 1586          3297.98126227873 
 1587          3365.85923504512 
 1588          3473.95466839167 
 1589          3519.87587251949 
 1590          3519.86422095482 
 1591          3469.48416359808 
 1592          3414.65612429111 
 1593          3383.46697196923 
 1594          3373.37637095906 
 1595          3433.18641675575 
 1596          3567.27951088569 
 1597          3657.63816011637 
 1598          3673.67987479455 
 1599          3725.220777996 
 1600          3805.66274034082 
 1601          3855.07892287883 
 1602          3882.85141900787 
 1603          4005.84615005193 
 1604          4154.38782734131 
 1605          4283.55491117727 
 1606          4335.80642924794 
 1607          4369.04631306592 
 1608          4534.5456383069 
 1609          4679.45685516788 
 1610          4773.55133257429 
 1611          4860.63176186814 
 1612          4956.7371137714 
 1613          5044.62800166525 
 1614          5113.54461595132 
 1615          5140.85458995098 
 1616          5157.6421973504 
 1617          5186.31433111403 
 1618          5236.09749027572 
 1619          5303.60931558161 
 1620          5416.00822885758 
 1621          5550.9673311012 
 1622          5691.01647964629 
 1623          5857.10503191448 
 1624          5959.5046115139 
 1625          6133.83382423569 
 1626          6405.82082453659 
 1627          6709.77307366371 
 1628          7010.21338684134 
 1629          7555.4606083397 
 1630          8492.62139654126 
 1631          9522.59960346277 
 1632          10727.719457305 
 1633          12266.0254805192 
 1634          14246.8663832818 
 1635          16897.9590802555 
 1636          19634.6189354971 
 1637          23088.6055841177 
 1638          27395.580791458 
 1639          31747.8738512211 
 1640          36170.5792835439 
 1641          39598.4888200326 
 1642          41832.4971184219 
 1643          42833.9085162162 
 1644          43689.8317406475 
 1645          42762.7913884803 
 1646          39687.1771028719 
 1647          35989.0048969614 
 1648          32010.9749983987 
 1649          27991.4992734995 
 1650          24188.061945643 
 1651          20762.4751467895 
 1652          17933.1162669222 
 1653          15661.4134665182 
 1654          13957.451580635 
 1655          12592.2774669215 
 1656          11587.0907774819 
 1657          10625.3002509418 
 1658          10010.6675799944 
 1659          9651.37872661196 
 1660          9870.26649460004 
 1661          10478.4337905657 
 1662          11367.5458013565 
 1663          12624.0174119551 
 1664          14346.5495641133 
 1665          16052.2673905449 
 1666          18607.9326369366 
 1667          21755.8001684987 
 1668          25192.2940557082 
 1669          28642.8572777244 
 1670          31719.9063510774 
 1671          34170.810102222 
 1672          35239.9541315654 
 1673          36287.3635489464 
 1674          36023.6145487318 
 1675          34943.1177852974 
 1676          33242.0460051028 
 1677          31747.7178519233 
 1678          30461.8696593173 
 1679          29370.9620668696 
 1680          28208.9150452272 
 1681          26828.2401401769 
 1682          25361.0037541454 
 1683          23805.5779110798 
 1684          21681.2127382113 
 1685          19373.7733523002 
 1686          17194.7085225498 
 1687          15091.6213593937 
 1688          13214.6318252136 
 1689          11392.7055110187 
 1690          9911.09642699592 
 1691          8720.07698900142 
 1692          7780.12648607917 
 1693          6942.60245850065 
 1694          6218.52633103102 
 1695          5627.60834900159 
 1696          5099.06903166151 
 1697          4619.61201828994 
 1698          4288.15337518202 
 1699          4151.43337387715 
 1700          4082.67928791846 
 1701          3926.30673680021 
 1702          3773.91715333779 
 1703          3709.29717154039 
 1704          3679.51749962233 
 1705          3488.83647609496 
 1706          3410.80344863516 
 1707          3334.4621506133 
 1708          3279.9203973453 
 1709          3260.64012423467 
 1710          3218.51937567817 
 1711          3238.37888120381 
 1712          3255.26763553116 
 1713          3230.35667952389 
 1714          3179.64448287789 
 1715          3004.82046551299 
 1716          2874.45731163898 
 1717          2807.44596086851 
 1718          2858.06133407989 
 1719          2883.59053344941 
 1720          2918.24414546916 
 1721          2892.27083876799 
 1722          2821.99559108291 
 1723          2796.88917757019 
 1724          2789.20933723395 
 1725          2824.76023397562 
 1726          2810.55314705988 
 1727          2744.58013058887 
 1728          2677.82489697162 
 1729          2570.04967020925 
 1730          2525.26138659402 
 1731          2590.25149559145 
 1732          2577.84198807846 
 1733          2624.81282259286 
 1734          2602.9673523174 
 1735          2575.42432057354 
 1736          2511.46550511719 
 1737          2448.04861447227 
 1738          2507.02891282418 
 1739          2571.78920279725 
 1740          2642.56307304841 
 1741          2524.52684211911 
 1742          2527.59288373705 
 1743          2549.09565828788 
 1744          2637.59491373092 
 1745          2575.37796540601 
 1746          2493.9050362159 
 1747          2440.74782931575 
 1748          2422.35703715495 
 1749          2451.8085926745 
 1750          2473.68373209125 
 1751          2519.53441830281 
 1752          2541.8709530751 
 1753          2574.104122246 
 1754          2502.38780885215 
 1755          2496.43154525965 
 1756          2505.85162183404 
 1757          2512.44356598243 
 1758          2370.7731538947 
 1759          2312.16301686141 
 1760          2350.09875343903 
 1761          2410.81949915083 
 1762          2421.58747152514 
 1763          2352.39847653167 
 1764          2328.1037280215 
 1765          2328.65313870708 
 1766          2296.87404951362 
 1767          2220.29069936284 
 1768          2249.51543507232 
 1769          2364.96808459668 
 1770          2339.91767733474 
 1771          2233.92810162313 
 1772          2167.19157030201 
 1773          2296.4011309039 
 1774          2307.76365079364 
 1775          2346.3613993537 
 1776          2279.49729569462 
 1777          2305.0830633912 
 1778          2298.17984051585 
 1779          2318.04505952623 
 1780          2267.71791425085 
 1781          2277.60557235395 
 1782          2319.10621599696 
 1783          2297.0670484488 
 1784          2210.23414781963 
 1785          2101.18795865278 
 1786          2115.58431783756 
 1787          2135.67740998394 
 1788          2159.89943650197 
 1789          2126.05732435 
 1790          2067.98878451187 
 1791          2054.54162533666 
 1792          2055.10774388299 
 1793          2167.02452836363 
 1794          2135.67520436038 
 1795          2069.57168018064 
 1796          1979.22310135787 
 1797          2007.67777171358 
 1798          2031.83658444903 
 1799          2053.55843690872 
 1800          2070.1465589456 
 1801          2055.97257183761 
 1802          2021.38866101952 
 1803          2014.39581800112 
 1804          1964.72649569284 
 1805          1959.83491737893 
 1806          1958.90312802561 
 1807          1986.55526583944 
 1808          1953.55238251456 
 1809          2044.1780702477 
 1810          2080.2847602427 
 1811          2059.29949194297 
 1812          1938.79936838259 
 1813          1890.22853020653 
 1814          1852.60301307156 
 1815          1869.14309360304 
 1816          1918.03567802134 
 1817          1975.6380253122 
 1818          1966.48959683969 
 1819          1901.39403008919 
 1820          1977.4491034789 
 1821          2000.08423922954 
 1822          1935.57342966866 
 1823          1805.68176803362 
 1824          1777.60078826496 
 1825          1865.01634135548 
 1826          1987.58737604583 
 1827          1996.56873728349 
 1828          1898.01979767773 
 1829          1908.78380202176 
 1830          1989.56764891901 
 1831          1959.67194005585 
 1832          1916.21702025811 
 1833          1987.00933588788 
 1834          2090.22135936071 
 1835          1999.97070844388 
 1836          1861.21792717094 
 1837          1867.39512616634 
 1838          1913.08214468911 
 1839          1966.71059100346 
 1840          1952.4981134224 
 1841          1957.76883291966 
 1842          1942.83752829709 
 1843          1874.92482005636 
 1844          1858.42294462154 
 1845          1865.24712701533 
 1846          1840.80465979023 
 1847          1801.02891604785 
 1848          1805.08909932894 
 1849          1849.38303155932 
 1850          1836.30465167998 
 1851          1794.96969245438 
 1852          1768.44865071358 
 1853          1737.35889011406 
 1854          1723.0776571086 
 1855          1713.66101462814 
 1856          1694.95961759488 
 1857          1721.8818717788 
 1858          1715.23383682584 
 1859          1734.53060490554 
 1860          1666.87770088866 
 1861          1656.25295025475 
 1862          1668.75890484251 
 1863          1730.73208690482 
 1864          1759.0286466951 
 1865          1749.42788847969 
 1866          1778.15623281404 
 1867          1795.78583940661 
 1868          1809.91247242265 
 1869          1815.97776609265 
 1870          1848.95683916418 
 1871          1791.49200749505 
 1872          1695.77114658613 
 1873          1670.65551932006 
 1874          1718.34020702833 
 1875          1732.82559045688 
 1876          1748.09960293182 
 1877          1753.6891276619 
 1878          1728.90377497762 
 1879          1713.63339723835 
 1880          1717.7764172003 
 1881          1697.48260211223 
 1882          1682.482052657 
 1883          1690.32724430874 
 1884          1648.0996599326 
 1885          1632.19652990119 
 1886          1616.18609682844 
 1887          1586.16760807901 
 1888          1621.48426927625 
 1889          1616.16748330337 
 1890          1608.14913758615 
 1891          1567.33627293885 
 1892          1568.06493602833 
 1893          1567.4301097948 
 1894          1589.64773731559 
 1895          1652.45960432623 
 1896          1694.04189732799 
 1897          1678.93811638698 
 1898          1628.05774612101 
 1899          1542.35414767974 
 1900          1491.26329880217 
 1901          1455.49331491296 
 1902          1475.1203715703 
 1903          1554.39985247185 
 1904          1584.29883644718 
 1905          1666.00059960055 
 1906          1669.67311847431 
 1907          1638.80430841168 
 1908          1504.55308959235 
 1909          1511.8100753742 
 1910          1580.94529237791 
 1911          1659.53877014215 
 1912          1683.1172051239 
 1913          1655.50840550937 
 1914          1617.38242547195 
 1915          1598.77989873666 
 1916          1622.71381803488 
 1917          1588.79840700924 
 1918          1564.60078723907 
 1919          1596.27093886005 
 1920          1655.49797168276 
 1921          1728.7337973891 
 1922          1711.12459213523 
 1923          1671.2550659721 
 1924          1594.34494053499 
 1925          1587.76019475628 
 1926          1583.71555345953 
 1927          1594.64834942586 
 1928          1596.94410415343 
 1929          1590.40135771544 
 1930          1598.32248724095 
 1931          1539.45842018194 
 1932          1589.54627464639 
 1933          1631.66129128905 
 1934          1671.43879507982 
 1935          1665.61512946414 
 1936          1684.32906264727 
 1937          1658.15674392646 
 1938          1576.59627187002 
 1939          1555.28744484484 
 1940          1584.48310964227 
 1941          1560.37559784369 
 1942          1514.48944335107 
 1943          1427.68908424193 
 1944          1420.69444049004 
 1945          1454.93846846128 
 1946          1567.29030554389 
 1947          1608.3812927501 
 1948          1582.75200680928 
 1949          1483.64795851218 
 1950          1444.40848845009 
 1951          1484.95676865376 
 1952          1508.28714334737 
 1953          1540.97342334391 
 1954          1577.48594734483 
 1955          1604.5189004451 
 1956          1579.1407770545 
 1957          1567.16752538583 
 1958          1518.77476480892 
 1959          1504.81234970857 
 1960          1535.58342354246 
 1961          1609.63022584045 
 1962          1621.74407211001 
 1963          1642.17281613946 
 1964          1597.04274117551 
 1965          1567.28304229801 
 1966          1482.91014229324 
 1967          1425.70020980887 
 1968          1383.03347175542 
 1969          1371.53291701327 
 1970          1339.22053723449 
 1971          1364.0620078635 
 1972          1411.93720537838 
 1973          1451.52465720952 
 1974          1456.65087171191 
 1975          1506.83104185311 
 1976          1527.81813347283 
 1977          1483.63767027616 
 1978          1421.50432369646 
 1979          1415.51467208004 
 1980          1416.47281239032 
 1981          1426.21006950006 
 1982          1453.5032227993 
 1983          1453.49069072805 
 1984          1400.72117825412 
 1985          1364.85553955425 
 1986          1361.48615748336 
 1987          1396.58075349937 
 1988          1448.5937945528 
 1989          1452.16064851312 
 1990          1439.61024189768 
 1991          1382.2961432112 
 1992          1385.38760316744 
 1993          1366.76811803539 
 1994          1386.23091866209 
 1995          1382.07190683192 
 1996          1342.43757126734 
 1997          1311.41309109827 
 1998          1304.19622875176 
 1999          1345.83253343143 
 2000          1337.69807837763 
 2001          1305.35355549953 
 2002          1332.93399465551 
 2003          1331.29735638038 
 2004          1319.96340366864 
 2005          1331.238402733 
 2006          1288.1927720915 
 2007          1293.41678146136 
 2008          1256.88424187251 
 2009          1224.05104099924 
 2010          1246.43668496404 
 2011          1256.71748503337 
 2012          1269.69687837607 
 2013          1242.68380370491 
 2014          1213.66002546701 
 2015          1127.99146505807 
 2016          1080.55824156724 
 2017          1148.2667266716 
 2018          1297.86820188106 
 2019          1293.28454405306 
 2020          1208.44124289003 
 2021          1209.40138285527 
 2022          1263.6975733997 
 2023          1286.14984682808 
 2024          1265.90823788583 
 2025          1229.13432277518 
 2026          1205.09486835202 
 2027          1168.08043555886 
 2028          1193.55282121512 
 2029          1139.02482302819 
 2030          1125.49296567306 
 2031          1145.88007439783 
 2032          1101.38972090105 
 2033          1082.36617898539 
 2034          1182.75086591686 
 2035          1245.26521250586 
 2036          1044.11948380566 
 2037          926.8752352634 
 2038          1035.33193756483 
 2039          1240.86177916803 
 2040          1277.17140775101 
 2041          1204.12494076821 
 2042          1089.76647486709 
 2043          1027.13477221024 
 2044          980.428519592383 
 2045          1008.87308774324 
 2046          1067.17893674436 
 2047          1132.83059992505 
 2048          1244.45040720545 
 2049          1192.82755075875 
 2050          1154.78016417489 
 2051          1064.98234406973 
 2052          1077.30677330705 
 2053          1075.36895687092 
 2054          1028.32166803804 
 2055          1061.22110780993 
 2056          1137.83572732069 
 2057          1183.17127127909 
 2058          1075.93659903259 
 2059          1063.95239518635 
 2060          1049.93371357126 
 2061          1024.77486401385 
 2062          1052.10773303764 
 2063          1066.08286559787 
 2064          1111.28727202476 
 2065          1115.1461051767 
 2066          1074.59984686208 
 2067          1089.64698187322 
 2068          1098.30340352663 
 2069          1075.5827827922 
 2070          1021.85377827397 
 2071          974.180425121323 
 2072          1002.33480201629 
 2073          933.885395952993 
 2074          884.3129732037 
 2075          934.138980122013 
 2076          1078.36519110468 
 2077          1134.47929067461 
 2078          1096.90420405548 
 2079          1007.73723742936 
 2080          946.113850872665 
 2081          979.331726476547 
 2082          991.746767118804 
 2083          967.727940383776 
 2084          976.499686266836 
 2085          978.876686789128 
 2086          1021.03219314501 
 2087          999.82970727218 
 2088          1001.0819542591 
 2089          1015.90009526327 
 2090          1028.03133280739 
 2091          1075.93195018605 
 2092          1050.80296253663 
 2093          988.171987662093 
 2094          958.762494662948 
 2095          1012.93882503937 
 2096          1054.10963996106 
 2097          1055.35383363258 
 2098          1012.55617239096 
 2099          931.113543677237 
 2100          872.139513406251 
 2101          1005.10907664973 
 2102          1048.7914855713 
 2103          948.150008787233 
 2104          809.396780863016 
 2105          849.028583238122 
 2106          884.592321668049 
 2107          878.489069918877 
 2108          893.023899803492 
 2109          874.119696108807 
 2110          864.298908595199 
 2111          831.433368335285 
 2112          724.412803843833 
 2113          736.475864901941 
 2114          765.539510799557 
 2115          849.826678541619 
 2116          889.849925903191 
 2117          949.933489337688 
 2118          1021.42275374404 
 2119          989.731461503162 
 2120          891.754583344678 
 2121          819.922509770823 
 2122          757.839194779924 
 2123          791.269684941106 
 2124          843.821202654332 
 2125          852.59863062735 
 2126          930.338316207191 
 2127          956.975165770678 
 2128          948.301899566261 
 2129          926.509383921771 
 2130          886.757496831817 
 2131          830.544568395761 
 2132          853.250045128748 
 2133          816.799310345445 
 2134          804.831430584816 
 2135          823.310629505414 
 2136          877.131928396361 
 2137          885.909048933064 
 2138          876.879817291923 
 2139          820.797524901709 
 2140          793.416486492111 
 2141          806.03810519668 
 2142          862.517817673919 
 2143          819.857895815052 
 2144          804.943400252527 
 2145          826.879119182191 
 2146          800.098414367015 
 2147          796.328565956957 
 2148          813.818503256268 
 2149          804.341764206339 
 2150          838.637322478517 
 2151          844.454401172808 
 2152          847.878886495291 
 2153          826.903685284279 
 2154          894.242214085445 
 2155          970.400170886872 
 2156          951.380519495118 
 2157          865.942805556245 
 2158          806.586031735219 
 2159          740.329843803807 
 2160          744.764416461366 
 2161          751.198463573706 
 2162          786.436015704858 
 2163          795.176400147453 
 2164          789.964937779615 
 2165          743.324216947536 
 2166          751.488325531333 
 2167          734.414609064162 
 2168          768.92039836255 
 2169          742.748703615655 
 2170          725.841095338477 
 2171          708.011587610251 
 2172          735.747237228087 
 2173          775.805484504356 
 2174          795.109956721948 
 2175          846.574984460326 
 2176          811.577434448303 
 2177          814.571168886591 
 2178          794.274661807765 
 2179          773.002846560167 
 2180          792.201319156394 
 2181          912.137713770531 
 2182          991.76880493341 
 2183          869.380067711384 
 2184          803.000453022965 
 2185          786.125928960559 
 2186          758.589265271293 
 2187          752.515128016368 
 2188          712.180867658694 
 2189          690.207379264396 
 2190          706.474503523882 
 2191          687.633475930979 
 2192          652.246431746029 
 2193          663.472089972656 
 2194          700.947896947707 
 2195          685.609297350311 
 2196          731.943339370369 
 2197          876.256725017115 
 2198          873.453078305277 
 2199          822.209057136811 
 2200          716.650186144514 
 2201          642.860378935897 
 2202          528.024592372571 
 2203          583.354443043093 
 2204          637.017104641336 
 2205          703.472391841149 
 2206          755.674048357672 
 2207          791.596950130687 
 2208          800.473377101082 
 2209          754.226977561824 
 2210          771.165420184807 
 2211          836.46875178074 
 2212          837.754641559088 
 2213          792.403072689499 
 2214          720.731225414116 
 2215          725.133464393931 
 2216          778.062380670728 
 2217          760.578156028979 
 2218          710.605466248903 
 2219          727.76194018175 
 2220          763.398467258434 
 2221          768.098221101352 
 2222          702.910120396886 
 2223          786.524656232384 
 2224          826.311544175019 
 2225          806.976996786815 
 2226          787.110442480682 
 2227          877.249680681255 
 2228          961.309123898494 
 2229          829.725693141445 
 2230          759.197914440841 
 2231          724.305910727394 
 2232          707.477385299197 
 2233          704.026893738014 
 2234          717.407976626648 
 2235          722.946921957065 
 2236          702.048291951991 
 2237          793.693700956041 
 2238          733.246334650665 
 2239          662.90627477839 
 2240          649.220087843784 
 2241          830.188735942306 
 2242          880.869919724985 
 2243          782.212406147802 
 2244          740.619731750289 
 2245          780.564886367077 
 2246          744.114041810294 
 2247          647.975407311353 
 2248          716.317513389985 
 2249          694.714443097319 
 2250          633.81499055227 
 2251          590.003602381035 
 2252          672.091303042028 
 2253          628.929944554404 
 2254          643.092836757704 
 2255          664.526211715302 
 2256          753.567372589205 
 2257          735.613135414931 
 2258          697.705160873893 
 2259          595.518008784376 
 2260          568.827418560059 
 2261          614.768005003073 
 2262          613.672898085564 
 2263          652.015998702808 
 2264          766.262958546672 
 2265          708.213375238941 
 2266          623.210423113521 
 2267          627.09872169519 
 2268          678.302419846481 
 2269          678.432655837101 
 2270          676.468376074437 
 2271          580.16386084184 
 2272          610.043060784573 
 2273          614.257590445739 
 2274          578.908831963107 
 2275          547.391971427316 
 2276          593.232754485002 
 2277          709.607834272937 
 2278          620.665098814672 
 2279          562.080449782878 
 2280          646.474153134047 
 2281          668.4076695903 
 2282          635.658489272707 
 2283          654.382716515355 
 2284          600.202024723226 
 2285          527.816400261488 
 2286          519.939099939104 
 2287          523.300775445231 
 2288          547.825585180517 
 2289          608.150166923088 
 2290          672.330894779073 
 2291          580.948907437974 
 2292          518.278443343789 
 2293          571.699323517431 
 2294          566.287923733834 
 2295          565.112421570488 
 2296          577.440226190514 
 2297          595.988978424037 
 2298          658.56714173277 
 2299          619.752848089175 
 2300          577.173809482339 
 2301          540.671984488524 
 2302          548.773829040686 
 2303          536.804125081904 
 2304          489.965356196093 
 2305          501.207261089295 
 2306          577.299196527606 
 2307          602.380494163031 
 2308          602.340343601453 
 2309          558.328248152796 
 2310          544.788418675551 
 2311          541.723851831503 
 2312          658.404136559725 
 2313          613.57409619426 
 2314          531.250388413408 
 2315          499.351151748705 
 2316          582.126725687991 
 2317          661.611611597279 
 2318          660.03691565054 
 2319          621.71467565323 
 2320          574.772526796636 
 2321          529.209567466988 
 2322          471.25695655272 
 2323          537.960502134786 
 2324          637.691347888697 
 2325          604.917890008015 
 2326          523.428350119792 
 2327          491.170498224467 
 2328          458.907232212084 
 2329          451.361663260036 
 2330          401.631236704154 
 2331          431.22437151735 
 2332          420.545382299808 
 2333          479.93516037821 
 2334          540.793272570607 
 2335          526.978825392383 
 2336          385.805130396625 
 2337          342.879237412753 
 2338          351.245178601238 
 2339          320.914567856902 
##END=
