##TITLE=1-butanol 2.jdx
##JCAMP-DX=5.00
##DATE=7/1/2010 2:10:03 PM
##DATATYPE=Raman Spectrum
##DATA CLASS=XYDATA
##ORIGIN=ENWAVE
##OWNER=ENWAVE
##NPOINTS=2090
##FIRSTX= 1
##LASTX= 2339
##MAXX= 2339
##MINX= 1
##XFACTOR=1.0000000000
##YFACTOR=1.0000000000
##FIRSTY= 236.93345241789
##DELTAX=1.000000000000
##XUNITS=1/CM
##YUNITS=ARBITRARY UNITS
##XYDATA=(X++(Y..Y))
 1             236.93345241789 
 251           236.93345241789 
 252           972.716575945101 
 253           2295.66087310549 
 254           3426.7464669587 
 255           4591.59475785133 
 256           5464.42603040116 
 257           5489.89550404069 
 258           5422.81318275122 
 259           5516.31751803137 
 260           5570.11965536963 
 261           5674.97463851848 
 262           5829.04361339915 
 263           5944.01156333117 
 264           5961.11158383577 
 265           5965.17900264489 
 266           6039.47570885137 
 267           6114.99558911092 
 268           6139.85820266589 
 269           6116.43980881687 
 270           6098.54011882041 
 271           6071.90510298718 
 272           6023.46777776605 
 273           5981.77381038089 
 274           5963.47263626456 
 275           5967.14173796005 
 276           5973.00137934323 
 277           5949.91179267597 
 278           5900.67495349393 
 279           5856.10471646477 
 280           5812.17697886396 
 281           5761.91873460885 
 282           5706.28926356014 
 283           5656.7225025792 
 284           5636.21949376277 
 285           5637.78839333076 
 286           5574.60187356893 
 287           5469.63224074801 
 288           5375.08875044839 
 289           5265.64878180153 
 290           5199.85037626991 
 291           5213.31855136124 
 292           5233.39756817965 
 293           5223.24161266664 
 294           5191.85583241598 
 295           5169.12771205194 
 296           5104.06944704963 
 297           4964.8929340812 
 298           4784.41999357096 
 299           4646.65096973215 
 300           4558.95935615349 
 301           4475.40510912594 
 302           4431.06765208532 
 303           4412.88811221181 
 304           4386.36736089193 
 305           4378.19884973109 
 306           4385.91631155719 
 307           4395.54379691669 
 308           4412.97762047506 
 309           4427.12595104943 
 310           4397.18238647966 
 311           4273.27902096583 
 312           4137.03152135242 
 313           4057.1843219827 
 314           4036.45489224341 
 315           4114.93220314924 
 316           4254.80823800664 
 317           4356.81643363665 
 318           4411.13662495358 
 319           4458.11481884139 
 320           4524.79692591876 
 321           4553.60974935117 
 322           4577.42128888263 
 323           4629.54697539643 
 324           4651.22004540679 
 325           4796.88256018046 
 326           5090.64370031812 
 327           5269.7039036833 
 328           5428.15958590538 
 329           5621.80278287863 
 330           5746.25431698081 
 331           5860.48326000594 
 332           6083.43954551658 
 333           6465.45149736366 
 334           6831.4378927261 
 335           7254.43498407959 
 336           7856.11326821541 
 337           8449.82419795475 
 338           9075.80778235478 
 339           9818.0006413689 
 340           10603.8960543536 
 341           11383.5449217847 
 342           12170.0962780053 
 343           12988.7937921756 
 344           13659.5892789847 
 345           14149.2479770213 
 346           14575.4132538845 
 347           14923.451384445 
 348           15164.6507136681 
 349           15289.3987451226 
 350           15306.1501733227 
 351           15194.1730207858 
 352           14972.3310445138 
 353           14730.7953890969 
 354           14434.1419793027 
 355           14081.3242622603 
 356           13736.6317471606 
 357           13315.1178787135 
 358           12827.6526579298 
 359           12358.1935583372 
 360           11852.007664899 
 361           11301.6532887841 
 362           10764.8371886513 
 363           10317.5476189727 
 364           9907.00807832637 
 365           9453.5481441343 
 366           8955.41593768046 
 367           8544.320119612 
 368           8233.24187273124 
 369           7919.34239699602 
 370           7685.93116857957 
 371           7522.05047556514 
 372           7358.50533713543 
 373           7234.8559003773 
 374           7153.41200616647 
 375           7153.00773531811 
 376           7345.04743131481 
 377           7614.64784393381 
 378           7834.20117187498 
 379           8011.38929903759 
 380           8328.50558336462 
 381           8863.40251184719 
 382           9594.95549780178 
 383           10570.6276880466 
 384           11881.6498399485 
 385           13567.3446044648 
 386           15581.8484019662 
 387           18142.2829488002 
 388           21340.2416781385 
 389           24967.6178320938 
 390           28777.7714975693 
 391           32331.9652167776 
 392           35075.0620297661 
 393           36593.208149008 
 394           36660.7799803267 
 395           35265.9199667309 
 396           32636.8617269643 
 397           29191.3272950655 
 398           25409.0188698494 
 399           21724.5069560365 
 400           18402.1150584772 
 401           15591.3134482456 
 402           13309.6021769073 
 403           11402.5044612462 
 404           9847.8102633637 
 405           8646.37056373297 
 406           7707.83018106612 
 407           7075.78273967719 
 408           6672.97845700217 
 409           6281.07374382883 
 410           5891.66402061033 
 411           5510.83803801105 
 412           5164.55874293807 
 413           4965.49655773553 
 414           4829.17691535956 
 415           4673.95886139533 
 416           4570.73504544285 
 417           4533.92631714071 
 418           4536.87751669056 
 419           4538.31666207669 
 420           4514.49304732051 
 421           4498.19528462615 
 422           4478.33711749541 
 423           4325.45816253782 
 424           4135.62884283022 
 425           4040.80046852055 
 426           4066.43345741791 
 427           4138.27082596825 
 428           4229.91891651201 
 429           4345.31017378218 
 430           4426.6981567835 
 431           4478.3076205758 
 432           4567.71535435711 
 433           4767.83258824154 
 434           4982.42879463529 
 435           5191.4230331602 
 436           5456.12832863283 
 437           5712.12451183376 
 438           6059.91331048677 
 439           6563.03772608045 
 440           7043.55967103769 
 441           7582.1771757796 
 442           8202.4621133422 
 443           8773.32062151873 
 444           9290.16797628905 
 445           9656.82492041544 
 446           9828.96091004595 
 447           10020.9943306747 
 448           10176.5865863548 
 449           10217.4702839257 
 450           10177.4630160145 
 451           9951.4486341762 
 452           9576.76817808601 
 453           9197.70800257369 
 454           8851.03477697596 
 455           8467.09839614077 
 456           8040.55063924745 
 457           7686.61871009913 
 458           7361.24249203157 
 459           7011.26660497427 
 460           6661.41341965209 
 461           6423.83375400016 
 462           6214.0026834154 
 463           5970.75294469074 
 464           5809.04453317837 
 465           5696.26466124656 
 466           5595.81744047438 
 467           5524.25705430419 
 468           5521.54716667862 
 469           5589.66265036063 
 470           5732.10520374989 
 471           5965.28245299765 
 472           6185.43907839797 
 473           6450.49347979601 
 474           6884.74668706991 
 475           7305.90651644349 
 476           7784.54701423256 
 477           8396.78157002288 
 478           8981.16183394471 
 479           9492.61936761982 
 480           9950.05124395713 
 481           10344.1629279626 
 482           10555.3153263657 
 483           10606.7347767225 
 484           10637.0786617062 
 485           10725.3773813784 
 486           10497.2050766844 
 487           10001.7448945655 
 488           9558.02628408819 
 489           8952.56950743082 
 490           8340.59418499184 
 491           7851.24214324438 
 492           7325.02697794499 
 493           6948.92893616466 
 494           6728.65606157598 
 495           6520.9091211505 
 496           6377.20559418847 
 497           6317.78132027171 
 498           6358.70721568953 
 499           6515.55411300399 
 500           6688.6490501441 
 501           6874.98384511321 
 502           7121.72356106062 
 503           7414.12013936054 
 504           7900.68461005279 
 505           8524.3652677319 
 506           9028.96020422119 
 507           9538.39583468835 
 508           10077.2795841805 
 509           10481.6728701321 
 510           10559.3692950967 
 511           10619.5201485767 
 512           10606.7351875129 
 513           10212.2369783232 
 514           9833.91357161744 
 515           9348.39028979555 
 516           8620.99226771699 
 517           7939.07276694679 
 518           7238.20853811639 
 519           6537.36797666769 
 520           5957.28528601044 
 521           5492.44281263161 
 522           5123.57695434144 
 523           4812.96663025827 
 524           4514.67486479174 
 525           4237.060965947 
 526           3975.44854074114 
 527           3724.0106075849 
 528           3494.82220845119 
 529           3255.96543865774 
 530           3069.79939860827 
 531           3012.69849686053 
 532           2941.09446366163 
 533           2839.36451682418 
 534           2747.26280435291 
 535           2666.31076928632 
 536           2599.88256209701 
 537           2571.70067948886 
 538           2590.55132148323 
 539           2612.16175899741 
 540           2610.80200199893 
 541           2594.35801162493 
 542           2573.99814134942 
 543           2506.65364820409 
 544           2402.88960237399 
 545           2310.7705198789 
 546           2264.690982832 
 547           2225.81969220005 
 548           2183.47235026078 
 549           2160.28564062306 
 550           2166.80448464768 
 551           2166.13228035463 
 552           2169.85518757342 
 553           2203.25418692261 
 554           2165.97155877602 
 555           2132.37470125931 
 556           2139.68709116819 
 557           2090.53877824512 
 558           2098.65547061592 
 559           2134.34801609769 
 560           2125.08221211614 
 561           2149.82623372585 
 562           2140.15609521836 
 563           2100.41248946482 
 564           2098.81379821302 
 565           2074.54618651662 
 566           2067.99019751776 
 567           2081.15813848857 
 568           2046.29757718514 
 569           2043.01647654921 
 570           2040.35405842738 
 571           2003.13106746693 
 572           2004.64188781429 
 573           2005.66106083882 
 574           2007.06770884056 
 575           2041.49395380433 
 576           2081.12600877601 
 577           2090.63583534664 
 578           2068.91728682595 
 579           2039.03125935148 
 580           1998.5910192961 
 581           1961.53074291124 
 582           1927.54983843281 
 583           1888.17516272624 
 584           1904.44591867666 
 585           1930.75807957581 
 586           1944.16484550688 
 587           2032.47606871993 
 588           2085.55126735722 
 589           2101.23695873548 
 590           2133.78191669625 
 591           2110.57365767055 
 592           2058.20753311913 
 593           1998.61544274374 
 594           1939.35318592856 
 595           1942.70026458709 
 596           1953.6657687817 
 597           1953.25449129164 
 598           1988.86069117745 
 599           1999.85590574093 
 600           2004.65788755578 
 601           2017.50722599899 
 602           2002.00995357846 
 603           2022.46921554089 
 604           2050.46608661538 
 605           2040.65961207168 
 606           2035.70910106953 
 607           2040.59990485422 
 608           2026.77844842225 
 609           1989.11334709518 
 610           1980.76603393568 
 611           1972.69359367056 
 612           1953.2265279399 
 613           1939.24796566522 
 614           1918.46325822942 
 615           1889.82014360122 
 616           1870.30682315185 
 617           1873.73844303291 
 618           1879.92460293208 
 619           1904.39654122287 
 620           1916.09843863512 
 621           1855.21414802668 
 622           1802.54977939323 
 623           1848.17085548072 
 624           1951.30376307635 
 625           1981.35758519267 
 626           2024.57296687178 
 627           2064.99733706208 
 628           2054.52810474867 
 629           2029.95481400084 
 630           2030.49606498644 
 631           2016.37670065526 
 632           1970.01015070173 
 633           1960.93130180666 
 634           1940.2352063722 
 635           1916.58098586793 
 636           1924.51008891878 
 637           1932.1065300981 
 638           1924.16362314204 
 639           1919.58023125836 
 640           1925.33653437676 
 641           1908.7041255981 
 642           1939.76592441946 
 643           1992.79782104545 
 644           2009.66916944034 
 645           2054.1399353704 
 646           2037.52278262858 
 647           1986.55204851268 
 648           1997.61943795595 
 649           2003.91464760187 
 650           1999.60724173314 
 651           1989.38254350542 
 652           1976.7458079494 
 653           1991.87383603986 
 654           1999.62522384341 
 655           2003.17336931345 
 656           2037.53265766849 
 657           2073.32711700163 
 658           2099.49967370587 
 659           2130.90960687407 
 660           2155.79243020157 
 661           2087.81601866594 
 662           1973.28823669261 
 663           1881.2625914901 
 664           1839.60006308628 
 665           1861.77713840249 
 666           1964.34261277765 
 667           2070.94320155474 
 668           2087.11603863851 
 669           2084.04471079539 
 670           2070.24377703979 
 671           2063.25173430455 
 672           2085.21805694481 
 673           2080.14338999214 
 674           2060.18557162501 
 675           2031.11181600767 
 676           1978.53488144568 
 677           1927.31442399866 
 678           1916.35917058845 
 679           1922.24945626917 
 680           1927.1709300567 
 681           2017.92952188659 
 682           2060.29368426687 
 683           2006.1537529795 
 684           1944.98923200794 
 685           1922.9788384659 
 686           1936.21889975227 
 687           2002.34258538591 
 688           2095.12617008931 
 689           2082.02311343458 
 690           2034.24318359284 
 691           2025.56059686822 
 692           2046.86222607862 
 693           2055.33242640357 
 694           2090.8271081276 
 695           2153.41369000807 
 696           2205.57008966393 
 697           2236.45150274827 
 698           2263.84441154283 
 699           2236.27452475561 
 700           2132.96582870883 
 701           2050.44196491413 
 702           2039.06118942704 
 703           2058.49458916682 
 704           2096.62827663339 
 705           2192.23036205815 
 706           2218.55443846252 
 707           2216.08343586118 
 708           2243.27789486293 
 709           2262.72465557216 
 710           2299.49303772082 
 711           2326.26992493504 
 712           2305.08535769463 
 713           2245.34945810371 
 714           2213.73618334865 
 715           2250.65674905955 
 716           2305.74366337018 
 717           2310.51855714272 
 718           2314.96989055732 
 719           2330.94077942373 
 720           2352.3030233322 
 721           2386.55394300868 
 722           2453.04769308967 
 723           2520.8169820769 
 724           2558.73165415994 
 725           2565.20078425673 
 726           2576.5945479372 
 727           2654.72613473755 
 728           2762.02645211018 
 729           2882.19191274658 
 730           3082.43207089366 
 731           3310.34992928089 
 732           3500.30941070561 
 733           3614.12135947408 
 734           3671.87068274314 
 735           3763.15715404816 
 736           3831.45956479104 
 737           3872.45531876624 
 738           3940.9429277823 
 739           3980.68424919903 
 740           3996.51962962061 
 741           4054.07694874685 
 742           4169.87448593707 
 743           4248.58698588331 
 744           4285.08910555754 
 745           4287.48129572135 
 746           4244.58474406563 
 747           4142.56671331273 
 748           4006.76809108301 
 749           3884.79705298716 
 750           3768.32304343622 
 751           3638.29155238234 
 752           3601.88545485897 
 753           3599.72789578036 
 754           3575.18477222307 
 755           3560.17783089441 
 756           3579.88867704687 
 757           3479.9010612038 
 758           3359.73247758206 
 759           3328.22124425755 
 760           3256.0605327407 
 761           3274.94189140521 
 762           3350.39365051737 
 763           3418.32105221884 
 764           3489.69455448912 
 765           3493.51328582213 
 766           3476.55741269823 
 767           3452.42004495596 
 768           3434.63917027473 
 769           3548.512596045 
 770           3722.61433300535 
 771           3909.03445484795 
 772           4063.04662779942 
 773           4100.84425146119 
 774           4089.28289235219 
 775           4138.49315464288 
 776           4234.70555435791 
 777           4321.95520249832 
 778           4536.88772035206 
 779           4779.87274538679 
 780           5015.07390610965 
 781           5295.62955887797 
 782           5590.41238913865 
 783           5834.51189527264 
 784           6040.51405253114 
 785           6220.38999242899 
 786           6350.46572357567 
 787           6476.78309631308 
 788           6611.28150409021 
 789           6793.87576762915 
 790           7064.07995114423 
 791           7367.12794404052 
 792           7625.66162319929 
 793           8030.09198792516 
 794           8621.15577778119 
 795           9178.27138968189 
 796           9976.48879939449 
 797           11047.4446557703 
 798           12505.3888621328 
 799           14484.0006279398 
 800           16773.7477011987 
 801           19470.1365027986 
 802           22175.0480751238 
 803           24461.2005463827 
 804           26264.6465417071 
 805           27255.6487793113 
 806           28373.1182173131 
 807           28784.8782495736 
 808           27121.0194215263 
 809           25096.7166690248 
 810           22851.9014985226 
 811           20902.0071714327 
 812           19782.6448269066 
 813           19327.6128699732 
 814           19666.6846246095 
 815           20881.8615929784 
 816           23116.0402608304 
 817           26499.0288045818 
 818           30926.9830633783 
 819           36152.0431864626 
 820           41568.726553001 
 821           46542.7415743318 
 822           50479.1843390097 
 823           52464.1505382817 
 824           52202.8792298439 
 825           49761.709399592 
 826           45480.3607466057 
 827           40038.2429610892 
 828           34211.1071027605 
 829           28723.9408196173 
 830           24057.9595109294 
 831           20429.9857064413 
 832           17903.3821148723 
 833           16248.1518973406 
 834           15242.1585990507 
 835           14770.7175688594 
 836           14778.4425718386 
 837           15217.1339123205 
 838           16048.9564457931 
 839           16975.2982650978 
 840           17738.1804354289 
 841           18438.6157849316 
 842           18800.7498088138 
 843           18854.9221070242 
 844           18634.2086189477 
 845           18043.2655129562 
 846           17191.7940719882 
 847           16065.0003267761 
 848           14792.277185549 
 849           13542.7401373572 
 850           12314.9947261219 
 851           11035.224008693 
 852           10026.8633773107 
 853           9199.98888168805 
 854           8380.20796770219 
 855           7867.01958630275 
 856           7504.86367293279 
 857           7264.96664014318 
 858           7073.24364178528 
 859           6887.35813388399 
 860           6917.87204719273 
 861           6969.57722586652 
 862           7024.41358091822 
 863           7151.07845679598 
 864           7401.18610153042 
 865           7936.51769618029 
 866           8640.5494077825 
 867           9523.75562408403 
 868           10499.1478389948 
 869           11457.1568295058 
 870           12884.8328080898 
 871           14338.3655952036 
 872           15521.1374228242 
 873           16506.3546549302 
 874           17248.7788970649 
 875           17600.88357177 
 876           18116.5998450508 
 877           17985.8686505047 
 878           16520.7578209978 
 879           15083.2953439491 
 880           13708.6903150176 
 881           12371.0077557371 
 882           11199.1064346716 
 883           10259.0977451592 
 884           9483.51447657306 
 885           8897.73660590426 
 886           8634.84243310747 
 887           8661.12624879775 
 888           8889.61757091096 
 889           9383.03778470939 
 890           9785.44080492651 
 891           10638.2793995963 
 892           11969.0019917285 
 893           13196.7509334624 
 894           14581.253482057 
 895           15918.0388787185 
 896           16950.7760274245 
 897           17557.1616066035 
 898           17501.5579781836 
 899           16402.4708369717 
 900           14916.72755372 
 901           13404.0262469928 
 902           11945.6815040335 
 903           10543.4330341469 
 904           9078.96962311818 
 905           8124.87077961248 
 906           7369.61431553816 
 907           6620.99709872714 
 908           6142.20102155178 
 909           5620.37664916907 
 910           5299.59640472385 
 911           5065.05945003265 
 912           4774.76698862425 
 913           4534.98796829443 
 914           4353.13348678948 
 915           4216.06749936226 
 916           4193.71971870185 
 917           4231.07385724279 
 918           4183.66748046888 
 919           4097.11062428736 
 920           4092.01949558573 
 921           4132.32866268349 
 922           4187.77826333707 
 923           4273.26184303489 
 924           4351.48787312512 
 925           4487.19085328286 
 926           4661.92045003634 
 927           4846.83022829776 
 928           5046.77039238136 
 929           5277.93138681636 
 930           5599.74670655524 
 931           5950.35126517556 
 932           6355.69159648137 
 933           6866.4670198139 
 934           7418.27433647268 
 935           8037.43435050209 
 936           8759.64528438332 
 937           9455.32951708013 
 938           10096.8699959723 
 939           10745.218546025 
 940           11044.1870256562 
 941           11285.968926772 
 942           11663.3106956097 
 943           12103.406576761 
 944           12521.0508467213 
 945           12908.9269558423 
 946           13274.1546021416 
 947           13608.7943330663 
 948           13919.8398865448 
 949           14193.6653366808 
 950           14393.7532320458 
 951           14648.1830573788 
 952           14631.2007294476 
 953           14429.509972933 
 954           14385.4536265247 
 955           14430.5406954446 
 956           14698.2494803398 
 957           15068.6180374702 
 958           15547.367054774 
 959           16116.2608907519 
 960           16560.9186062035 
 961           16889.4547622639 
 962           17312.9633774429 
 963           17325.6232677579 
 964           16696.0553554992 
 965           15784.2727399915 
 966           14607.8949386726 
 967           13289.0043121957 
 968           12030.1010576788 
 969           10793.3451427069 
 970           9542.99613635504 
 971           8503.78663446079 
 972           7666.57023202445 
 973           7026.83575016892 
 974           6568.25883916663 
 975           6295.31315900829 
 976           6179.27232784165 
 977           6076.02380357091 
 978           6074.23173759371 
 979           6077.6638949675 
 980           6093.92171379224 
 981           6200.14174419693 
 982           6304.95469384354 
 983           6493.81321506186 
 984           6675.00802269731 
 985           6818.34200325879 
 986           6988.56063274942 
 987           7189.51959824196 
 988           7329.28835616658 
 989           7392.14486559626 
 990           7292.6881301736 
 991           7021.85433713463 
 992           6699.95098609829 
 993           6443.19376192064 
 994           6268.70381536305 
 995           6122.67651969833 
 996           6033.56734696881 
 997           6026.77546403832 
 998           6114.56519621553 
 999           6391.62212445951 
 1000          6761.34588925492 
 1001          7144.81006181463 
 1002          7552.20170202242 
 1003          7982.63867494349 
 1004          8403.98378089501 
 1005          8875.1500866591 
 1006          9296.99437066695 
 1007          9628.87382800351 
 1008          9799.90729037439 
 1009          9765.68759793225 
 1010          9655.83429138376 
 1011          9507.91045762786 
 1012          9341.01353683407 
 1013          9348.78756547657 
 1014          9585.74154180711 
 1015          9889.19362374879 
 1016          10290.5164121009 
 1017          10940.6296609544 
 1018          11821.0826131637 
 1019          12976.4836019356 
 1020          14490.1319425054 
 1021          16182.4918262564 
 1022          17797.3990837329 
 1023          20116.6554106888 
 1024          22448.5626486822 
 1025          23985.0099660173 
 1026          24658.7042931281 
 1027          24385.4578693629 
 1028          22997.7773740927 
 1029          21263.302293838 
 1030          19671.6955742643 
 1031          18272.4427296484 
 1032          17114.204909305 
 1033          16312.8312770379 
 1034          15734.4101487082 
 1035          15478.3031660358 
 1036          15260.7574782309 
 1037          15205.3677081772 
 1038          15630.1854918221 
 1039          16199.1193826074 
 1040          17030.0395420594 
 1041          18049.7529802221 
 1042          19046.8197088175 
 1043          19895.538711323 
 1044          20701.3937955718 
 1045          21519.7151124572 
 1046          21793.8086665132 
 1047          21792.3367630291 
 1048          21716.9314521947 
 1049          21471.2587580327 
 1050          21058.5141409017 
 1051          20713.6920252572 
 1052          20601.0270296958 
 1053          20746.7457845432 
 1054          21151.0387711281 
 1055          21471.4545345608 
 1056          21503.7735768574 
 1057          21577.2845156644 
 1058          21343.9383713666 
 1059          21065.6691812756 
 1060          20809.4745258701 
 1061          20719.1432134724 
 1062          21013.7431949692 
 1063          21566.8743682793 
 1064          22318.8285307514 
 1065          22994.7860229952 
 1066          23572.4466810114 
 1067          23827.9604314268 
 1068          23747.5975908163 
 1069          23706.7574485284 
 1070          23269.1460184529 
 1071          22583.382190252 
 1072          21664.6316529023 
 1073          20600.3323288532 
 1074          19567.6284012381 
 1075          18612.4617221287 
 1076          17735.3910547254 
 1077          16809.6772598538 
 1078          15886.5486919899 
 1079          14874.5090657199 
 1080          13801.6797277496 
 1081          12866.5186531616 
 1082          12055.242112174 
 1083          11481.1234501317 
 1084          10923.0586304568 
 1085          10340.1905806516 
 1086          9802.01253962383 
 1087          9384.54275581085 
 1088          9196.34984185545 
 1089          9139.80684648651 
 1090          9235.7985236899 
 1091          9357.3278333224 
 1092          9477.36558948512 
 1093          9611.41822981462 
 1094          9721.30812064088 
 1095          9935.84627729496 
 1096          10273.9433646493 
 1097          10584.3536795258 
 1098          11074.6819913849 
 1099          11824.861735074 
 1100          12647.3874220516 
 1101          13536.9085663069 
 1102          14422.4680528828 
 1103          15437.8436015613 
 1104          16738.5314221853 
 1105          18146.5314220048 
 1106          19581.1007293792 
 1107          21134.4595629378 
 1108          22434.1272813584 
 1109          23346.0294530378 
 1110          23867.2626575691 
 1111          23569.5012076065 
 1112          22831.8846781906 
 1113          22084.9038650256 
 1114          20773.6238919117 
 1115          19395.0010658426 
 1116          17987.9626820836 
 1117          16542.3340083642 
 1118          15392.4792140489 
 1119          14499.7160653581 
 1120          13580.4026859567 
 1121          12894.9696652146 
 1122          12346.1648577544 
 1123          11808.5189388439 
 1124          11387.4752086483 
 1125          11112.6744277727 
 1126          10827.0893129502 
 1127          10496.0627503848 
 1128          10289.8536224648 
 1129          10055.3394955453 
 1130          9827.55100154105 
 1131          9573.38686351346 
 1132          9270.51293288099 
 1133          9008.63721158663 
 1134          8805.59448435618 
 1135          8558.68357188913 
 1136          8412.82113338808 
 1137          8119.11256014707 
 1138          7779.79780761592 
 1139          7453.53713940348 
 1140          7033.59650791903 
 1141          6590.08460283434 
 1142          6190.80853366353 
 1143          5859.17675798128 
 1144          5509.40159773091 
 1145          5279.91025166336 
 1146          5159.42501959061 
 1147          4989.04252173317 
 1148          4775.19963685826 
 1149          4543.92245313214 
 1150          4304.9260987359 
 1151          4143.18041565947 
 1152          4048.36352769042 
 1153          3958.17217790417 
 1154          3835.10210841655 
 1155          3706.93448786584 
 1156          3639.02073399056 
 1157          3536.40776095809 
 1158          3413.33552144309 
 1159          3361.62001054795 
 1160          3407.73514040655 
 1161          3441.15871476525 
 1162          3372.86540830957 
 1163          3271.72967329234 
 1164          3161.6012251039 
 1165          3165.87356400655 
 1166          3214.11290745176 
 1167          3224.66679775683 
 1168          3192.44905401394 
 1169          3148.54836478805 
 1170          3132.73705200762 
 1171          3116.64949504013 
 1172          3065.28331701396 
 1173          3040.03789384067 
 1174          3038.86541875442 
 1175          3041.57204766348 
 1176          3033.00652942999 
 1177          2995.49231252351 
 1178          2993.23019360657 
 1179          3082.79499095762 
 1180          3174.19136031533 
 1181          3203.77796485349 
 1182          3116.71922508755 
 1183          3078.9282489601 
 1184          3206.09079613872 
 1185          3268.78829065151 
 1186          3323.16585222161 
 1187          3383.55235652823 
 1188          3405.55609981534 
 1189          3438.83741174296 
 1190          3520.85855246053 
 1191          3630.97562757724 
 1192          3736.87563587924 
 1193          3794.88473464767 
 1194          3832.09456766863 
 1195          3942.91320930395 
 1196          4057.53778737737 
 1197          4177.34686272708 
 1198          4314.65697756064 
 1199          4454.85680195891 
 1200          4635.17083900863 
 1201          4838.53223205382 
 1202          4999.71494078425 
 1203          5152.1134812473 
 1204          5236.00732617636 
 1205          5353.90915147314 
 1206          5535.54396948553 
 1207          5713.03329624553 
 1208          5946.14199144319 
 1209          6207.8952630948 
 1210          6414.89813874661 
 1211          6537.8186359812 
 1212          6631.13724223482 
 1213          6754.58579895701 
 1214          6853.24984678733 
 1215          6888.54800903829 
 1216          6938.53142029888 
 1217          7007.20648155396 
 1218          7059.70912763293 
 1219          6995.94489250198 
 1220          6923.43529879001 
 1221          6855.60267648595 
 1222          6826.20582826045 
 1223          6815.45181012212 
 1224          6677.2696803372 
 1225          6493.17937619728 
 1226          6333.87452312581 
 1227          6101.63174519551 
 1228          5956.01299202563 
 1229          5817.89999763961 
 1230          5710.02779910662 
 1231          5750.38704857872 
 1232          5852.37327275563 
 1233          5980.39912837037 
 1234          6220.72347498906 
 1235          6482.14136448605 
 1236          6664.77174171535 
 1237          6810.03421824258 
 1238          7013.08443546619 
 1239          7220.92389290918 
 1240          7432.56383796454 
 1241          7738.68246044204 
 1242          8010.26307034045 
 1243          8370.87613752467 
 1244          8719.79128871666 
 1245          9060.55834613196 
 1246          9477.26675502051 
 1247          9915.1178158837 
 1248          10298.6863686855 
 1249          10593.6426026525 
 1250          10736.952063436 
 1251          10779.0139019259 
 1252          10658.2663168398 
 1253          10367.3555514672 
 1254          10055.1033813981 
 1255          9716.00891747577 
 1256          9371.29765455341 
 1257          8988.10365084658 
 1258          8546.7686324632 
 1259          8246.14784123892 
 1260          7956.35393012771 
 1261          7688.22887475716 
 1262          7388.59225429848 
 1263          7080.61851428339 
 1264          6847.03869024873 
 1265          6709.94749986965 
 1266          6638.71133588784 
 1267          6638.06096731348 
 1268          6709.01657605613 
 1269          6792.59847520894 
 1270          6948.41996292804 
 1271          7053.49332239442 
 1272          7123.47931676766 
 1273          7286.3755511903 
 1274          7637.89972434214 
 1275          8038.18799196602 
 1276          8376.48700428861 
 1277          8743.97089842038 
 1278          9029.36145985592 
 1279          9423.66872029254 
 1280          10059.1031931435 
 1281          10695.0979175233 
 1282          11513.8558145538 
 1283          12572.0440142245 
 1284          13810.6141971465 
 1285          15213.4170531058 
 1286          16762.9867298155 
 1287          18597.7260658125 
 1288          20643.2839084727 
 1289          22985.5314480891 
 1290          25398.1041113975 
 1291          27804.0899262638 
 1292          29930.0810838492 
 1293          31677.8220616705 
 1294          33008.1048119586 
 1295          33812.9522227159 
 1296          34134.1719342791 
 1297          33868.8706703433 
 1298          33117.9654361672 
 1299          32445.7788032023 
 1300          30889.5561322527 
 1301          29154.7530683061 
 1302          27694.6117650555 
 1303          26361.8586439496 
 1304          25003.4429452302 
 1305          23461.2529537977 
 1306          21795.289364426 
 1307          20131.6889843591 
 1308          18538.0928728433 
 1309          17014.7699042285 
 1310          15578.309219199 
 1311          14360.9726202547 
 1312          13352.1894287015 
 1313          12517.1133623548 
 1314          11795.0477340464 
 1315          11181.9073430493 
 1316          10796.6283952755 
 1317          10536.8603375335 
 1318          10168.8814755193 
 1319          9838.01744551944 
 1320          9525.56658361906 
 1321          9272.71053509457 
 1322          9004.10309572908 
 1323          8715.49056299264 
 1324          8455.97012028565 
 1325          8216.77540708617 
 1326          8007.16949568202 
 1327          7846.34480630333 
 1328          7724.10458863681 
 1329          7695.57131511577 
 1330          7675.86568406509 
 1331          7701.04023996808 
 1332          7678.11952024491 
 1333          7636.35510519674 
 1334          7654.39157041255 
 1335          7784.50768047504 
 1336          7878.18173791891 
 1337          7825.2463990301 
 1338          7801.42468435191 
 1339          7823.92466153194 
 1340          7841.01194565655 
 1341          7744.10659899897 
 1342          7632.56702475135 
 1343          7479.10034522836 
 1344          7381.78342369476 
 1345          7320.7476472906 
 1346          7304.75111534814 
 1347          7265.94124587906 
 1348          7160.53120055277 
 1349          7102.720575226 
 1350          7100.50538343455 
 1351          7209.3396732943 
 1352          7168.00753495594 
 1353          7117.30783457746 
 1354          7036.10092021603 
 1355          7016.48172926463 
 1356          7060.33557471759 
 1357          7058.62393283154 
 1358          7056.67806257027 
 1359          7120.75547346204 
 1360          7208.39634015997 
 1361          7293.33435442749 
 1362          7348.15680078883 
 1363          7413.96736714958 
 1364          7616.6163887983 
 1365          7828.25938305484 
 1366          7754.07507190325 
 1367          7655.25230825687 
 1368          7613.46111309774 
 1369          7554.26807240942 
 1370          7560.73715069504 
 1371          7585.45433327232 
 1372          7533.77731458848 
 1373          7526.07305484132 
 1374          7571.80095507601 
 1375          7594.06547070816 
 1376          7771.13330078046 
 1377          8047.54742001436 
 1378          8147.36856958903 
 1379          8250.77335933413 
 1380          8195.69352576035 
 1381          8095.85371323916 
 1382          7932.18474138877 
 1383          7687.5381852275 
 1384          7554.51501235427 
 1385          7512.23711226357 
 1386          7443.22356030174 
 1387          7394.11502516472 
 1388          7374.87139888617 
 1389          7458.18864603618 
 1390          7443.04054894473 
 1391          7426.69732429538 
 1392          7413.19772510694 
 1393          7440.7724825888 
 1394          7512.49002855077 
 1395          7640.14414270357 
 1396          7726.81554538766 
 1397          7763.58138966403 
 1398          7844.00081662673 
 1399          7971.2901823286 
 1400          8090.36317036362 
 1401          8191.6983025656 
 1402          8329.70320315149 
 1403          8422.46948909813 
 1404          8582.31261312896 
 1405          8665.61682593144 
 1406          8825.6849331835 
 1407          8972.96248238898 
 1408          9213.2709462496 
 1409          9471.2091883695 
 1410          9697.37343389201 
 1411          9952.21548651674 
 1412          10224.2855602059 
 1413          10506.6136870601 
 1414          10779.8736657195 
 1415          11033.9308870209 
 1416          11377.466168829 
 1417          11839.797323349 
 1418          12410.6665836982 
 1419          12978.7442398915 
 1420          13525.7195947423 
 1421          14153.0325783814 
 1422          14936.0220415737 
 1423          15688.3485404455 
 1424          16820.8134742241 
 1425          18080.7128071193 
 1426          19544.6248973614 
 1427          21321.8554291589 
 1428          23176.1641148141 
 1429          25156.7747100745 
 1430          27170.5222847459 
 1431          29131.0124448606 
 1432          30830.1744862378 
 1433          31853.1526187046 
 1434          32613.1097049979 
 1435          33396.2127079602 
 1436          34011.8175169566 
 1437          34575.5732195144 
 1438          35557.3063900836 
 1439          36613.5491759404 
 1440          37649.288572705 
 1441          38678.4036931672 
 1442          39728.4684736483 
 1443          40854.5681886342 
 1444          41810.8812976328 
 1445          42680.963716824 
 1446          43354.4543395811 
 1447          43555.9943358732 
 1448          43778.8253582559 
 1449          43816.2746938139 
 1450          43655.5410087545 
 1451          43037.0261466626 
 1452          42106.7817724902 
 1453          41329.6718569529 
 1454          40569.9244253853 
 1455          39897.5621003488 
 1456          39287.6224035679 
 1457          38614.4074024829 
 1458          37964.1752571316 
 1459          37187.9999081613 
 1460          36333.3437675617 
 1461          35453.7071212302 
 1462          34623.1890177903 
 1463          33882.312175608 
 1464          33096.1124914012 
 1465          32269.9108955803 
 1466          31406.5241118419 
 1467          30565.6965839363 
 1468          29871.1037834757 
 1469          29018.926591883 
 1470          28009.5748438057 
 1471          27298.1787639301 
 1472          26802.2404124865 
 1473          26525.6748276745 
 1474          26169.0661599451 
 1475          25807.8936670523 
 1476          25370.8124653114 
 1477          24908.1729638873 
 1478          24285.4586896359 
 1479          23617.7722016986 
 1480          22858.0214060537 
 1481          22045.0954915794 
 1482          21194.4223628832 
 1483          20299.3176355625 
 1484          19334.3290304483 
 1485          18326.6282548033 
 1486          17387.9971263092 
 1487          16501.6021400851 
 1488          15659.0548799708 
 1489          14707.5401684907 
 1490          13851.5583422129 
 1491          13089.9163061645 
 1492          12465.5013231486 
 1493          11861.79652093 
 1494          11244.9671826561 
 1495          10712.1052127094 
 1496          10189.1937642 
 1497          9828.36860287658 
 1498          9505.23103467993 
 1499          9152.68982898032 
 1500          8889.79983326875 
 1501          8624.50819756829 
 1502          8364.64372444912 
 1503          8081.57274264715 
 1504          7768.35810646412 
 1505          7510.07919441441 
 1506          7352.3983554493 
 1507          7174.86147826924 
 1508          6974.1157844272 
 1509          6849.85663879119 
 1510          6754.23937484284 
 1511          6666.08965099105 
 1512          6522.63985000131 
 1513          6314.22965195997 
 1514          6144.49150346781 
 1515          6008.07144621064 
 1516          5980.89034169464 
 1517          5804.55197381025 
 1518          5676.83089954885 
 1519          5492.72701137513 
 1520          5441.12389919842 
 1521          5407.33001620803 
 1522          5366.48726014174 
 1523          5325.30788482242 
 1524          5163.3923942176 
 1525          5052.22182332307 
 1526          4930.62943267589 
 1527          4993.28313046378 
 1528          4978.41405605778 
 1529          4822.35822271361 
 1530          4657.49907479634 
 1531          4466.61410439323 
 1532          4456.97005388667 
 1533          4491.52092276349 
 1534          4545.56004068995 
 1535          4584.06926472289 
 1536          4526.62008371127 
 1537          4452.21598072465 
 1538          4378.95704820257 
 1539          4289.09374514241 
 1540          4179.8206601594 
 1541          4122.91683187081 
 1542          4108.00738087229 
 1543          4111.33714667224 
 1544          4153.7431838534 
 1545          4152.43601862683 
 1546          4140.12249189147 
 1547          4108.37770621895 
 1548          4098.50992643833 
 1549          4025.04975371198 
 1550          3959.52848053346 
 1551          3892.54593267458 
 1552          3845.78846721071 
 1553          3841.61528267511 
 1554          3918.62965348072 
 1555          3919.19516630492 
 1556          3837.47493981612 
 1557          3598.98247019462 
 1558          3404.02961269052 
 1559          3221.96717887034 
 1560          3275.02202034281 
 1561          3403.04405122046 
 1562          3422.29618953995 
 1563          3442.84177023296 
 1564          3425.98258340956 
 1565          3400.09420156618 
 1566          3488.71053977509 
 1567          3590.50395755648 
 1568          3510.61978176421 
 1569          3435.51622345327 
 1570          3400.04644620092 
 1571          3365.46453650237 
 1572          3358.63732356642 
 1573          3361.23721555069 
 1574          3329.80341703067 
 1575          3238.5772485489 
 1576          3199.71797451881 
 1577          3233.54156569361 
 1578          3256.40544488281 
 1579          3241.21187880689 
 1580          3211.51865119678 
 1581          3217.88875337165 
 1582          3209.7651733148 
 1583          3257.93811278705 
 1584          3303.45044973805 
 1585          3313.86758869323 
 1586          3272.01944952455 
 1587          3241.24955163649 
 1588          3225.62657690267 
 1589          3184.07483213553 
 1590          3196.65367032377 
 1591          3217.6997025938 
 1592          3185.81586134415 
 1593          3126.30559222253 
 1594          3082.46133156661 
 1595          3058.60669464311 
 1596          3073.11861122122 
 1597          3131.41739336129 
 1598          3141.93109201239 
 1599          3105.26331536927 
 1600          3105.62019649883 
 1601          3109.8472403746 
 1602          3093.97950568347 
 1603          3118.95106140711 
 1604          3133.98276984077 
 1605          3044.57964255702 
 1606          2873.56846483771 
 1607          2821.63152646215 
 1608          2876.58566866864 
 1609          2888.62249462308 
 1610          2888.60288438163 
 1611          2932.91023166121 
 1612          3019.72593364818 
 1613          2996.26558781024 
 1614          2899.05320345266 
 1615          2821.44224471412 
 1616          2804.02482474724 
 1617          2800.66373916517 
 1618          2806.29176359468 
 1619          2843.3158076749 
 1620          2857.67894231879 
 1621          2891.16323902478 
 1622          2914.23580266996 
 1623          2974.49235203563 
 1624          2985.83088547147 
 1625          2895.75445124858 
 1626          2781.60821221124 
 1627          2710.93725181502 
 1628          2707.35554391963 
 1629          2666.8504743296 
 1630          2684.56860517642 
 1631          2764.76757326214 
 1632          2860.15432224191 
 1633          2983.03562072008 
 1634          2846.92419395182 
 1635          2672.55254111153 
 1636          2608.69842108224 
 1637          2630.28533893289 
 1638          2704.31545482498 
 1639          2743.45667002312 
 1640          2701.69539069326 
 1641          2602.66145428755 
 1642          2540.10921879952 
 1643          2547.37355753983 
 1644          2561.99346887292 
 1645          2777.32633283498 
 1646          3053.28907905689 
 1647          2945.26367822049 
 1648          2656.47696774185 
 1649          2579.6380207742 
 1650          2617.60977664709 
 1651          2690.27845914777 
 1652          2700.21245871256 
 1653          2646.42126026836 
 1654          2593.37193304993 
 1655          2606.9312946803 
 1656          2676.47911607307 
 1657          2800.23569707108 
 1658          2779.93449361001 
 1659          2616.57561626728 
 1660          2507.74449560416 
 1661          2559.49100576098 
 1662          2647.35586253517 
 1663          2797.1357004837 
 1664          2894.23556728921 
 1665          2882.90202198024 
 1666          2756.63795611445 
 1667          2696.04989842005 
 1668          2633.98976189326 
 1669          2749.04368511981 
 1670          2843.68540390103 
 1671          2822.70394989248 
 1672          2694.92600083087 
 1673          2621.02186147151 
 1674          2591.73441123088 
 1675          2585.85686334776 
 1676          2567.20942107159 
 1677          2627.14925905878 
 1678          2612.73195681957 
 1679          2646.44978821697 
 1680          2641.06434649355 
 1681          2679.15887041465 
 1682          2701.69095240701 
 1683          2688.72621859424 
 1684          2706.65192816223 
 1685          2718.20015161058 
 1686          2738.75186826163 
 1687          2757.33681974982 
 1688          2719.83181482944 
 1689          2728.04658035138 
 1690          2704.76365296775 
 1691          2647.73979408118 
 1692          2612.24380185083 
 1693          2647.33674230238 
 1694          2767.92476503296 
 1695          2799.52695484453 
 1696          2706.2579692676 
 1697          2641.00323987202 
 1698          2647.14498955778 
 1699          2678.65812201232 
 1700          2634.33531337071 
 1701          2574.53025679879 
 1702          2514.8173452373 
 1703          2536.9796144309 
 1704          2579.83867372407 
 1705          2633.93390500745 
 1706          2655.42702156979 
 1707          2571.69032728068 
 1708          2489.7325914263 
 1709          2421.37007986699 
 1710          2458.08993162305 
 1711          2503.77154660181 
 1712          2490.4591835569 
 1713          2507.56914001641 
 1714          2489.21300240386 
 1715          2500.69042138438 
 1716          2445.10268922494 
 1717          2429.54397818709 
 1718          2362.02051269706 
 1719          2331.09948486029 
 1720          2245.23322770289 
 1721          2210.41763681521 
 1722          2251.26277424902 
 1723          2229.06992208385 
 1724          2194.75303967124 
 1725          2245.29592073936 
 1726          2261.49264231556 
 1727          2217.19227012606 
 1728          2212.64055844327 
 1729          2264.5699806952 
 1730          2297.50804570493 
 1731          2206.04822446856 
 1732          2167.75187547209 
 1733          2187.34838233445 
 1734          2147.22116203009 
 1735          2145.26554202537 
 1736          2045.37555861864 
 1737          2142.96741616716 
 1738          2202.57589855205 
 1739          2189.12588720925 
 1740          2044.64162221368 
 1741          1952.29624518129 
 1742          1997.93466203018 
 1743          2013.35305559634 
 1744          2030.50339655536 
 1745          2034.81068919472 
 1746          2029.21039144196 
 1747          2032.59583493156 
 1748          2057.35637460985 
 1749          2042.97486235598 
 1750          1969.56406307206 
 1751          1977.05646208619 
 1752          1910.50351028448 
 1753          1811.89031690575 
 1754          1831.80646862006 
 1755          1835.82771279203 
 1756          1864.02805416078 
 1757          1945.3207660737 
 1758          1975.90557141497 
 1759          2017.57502860112 
 1760          1939.50008343537 
 1761          1875.61751801788 
 1762          1819.64888538992 
 1763          1753.86898185928 
 1764          1794.10794952777 
 1765          1871.57341258764 
 1766          1902.98499315504 
 1767          1913.15152917915 
 1768          1902.28937513175 
 1769          1875.72792256939 
 1770          1843.39892638454 
 1771          1849.98933025829 
 1772          1844.85592073896 
 1773          1870.28876538792 
 1774          1804.94466227689 
 1775          1766.06827986836 
 1776          1726.93590065131 
 1777          1749.57227403906 
 1778          1763.60454656452 
 1779          1723.41006810731 
 1780          1727.41308360949 
 1781          1738.1616104459 
 1782          1751.18360763683 
 1783          1751.48493751687 
 1784          1726.41618405615 
 1785          1689.17885003067 
 1786          1687.65458058904 
 1787          1702.8423538569 
 1788          1757.93036585695 
 1789          1864.78674092824 
 1790          1881.34089457341 
 1791          1784.87977360086 
 1792          1714.54133620672 
 1793          1771.74418533227 
 1794          1835.70476470161 
 1795          1850.87711885709 
 1796          1821.46415401448 
 1797          1812.23875502147 
 1798          1818.99612997969 
 1799          1759.17587303349 
 1800          1706.1582417901 
 1801          1667.04639640768 
 1802          1604.04710403258 
 1803          1608.44574185475 
 1804          1614.54830613917 
 1805          1699.98421670067 
 1806          1765.3519629233 
 1807          1774.62031237287 
 1808          1703.21556604629 
 1809          1567.0666727348 
 1810          1530.9899628133 
 1811          1515.98984287066 
 1812          1548.19176451924 
 1813          1532.11365906256 
 1814          1568.56909521517 
 1815          1569.8352162368 
 1816          1573.95313816346 
 1817          1580.90303119633 
 1818          1543.15669311262 
 1819          1562.80493809559 
 1820          1551.08290630006 
 1821          1558.51511524148 
 1822          1536.58587311356 
 1823          1524.39123801024 
 1824          1626.58966502118 
 1825          1712.65597888211 
 1826          1632.68188701767 
 1827          1594.03730510759 
 1828          1547.89948153712 
 1829          1484.51876144011 
 1830          1514.22468302266 
 1831          1564.80689284028 
 1832          1685.44717312797 
 1833          1712.83111872166 
 1834          1665.68545259802 
 1835          1613.29964210757 
 1836          1565.24114252176 
 1837          1500.48651848187 
 1838          1489.1238990691 
 1839          1604.48950437206 
 1840          1598.96844515777 
 1841          1602.07187116487 
 1842          1634.37936016104 
 1843          1710.74361382048 
 1844          1618.74074137417 
 1845          1582.64090878213 
 1846          1564.90093814122 
 1847          1629.93178058361 
 1848          1561.05433668128 
 1849          1496.53789940253 
 1850          1556.14130913332 
 1851          1682.14411700191 
 1852          1624.73581411224 
 1853          1469.47524811539 
 1854          1444.97398586436 
 1855          1533.83136690195 
 1856          1612.61069467031 
 1857          1631.67431971954 
 1858          1609.37979253572 
 1859          1516.38010576949 
 1860          1452.01048599009 
 1861          1391.84543804506 
 1862          1378.67404146869 
 1863          1545.04548743692 
 1864          1630.83283023917 
 1865          1690.24418995678 
 1866          1637.54921474947 
 1867          1532.67221962799 
 1868          1427.99049881314 
 1869          1546.66564480064 
 1870          1601.53553574425 
 1871          1592.75508934909 
 1872          1587.89872971768 
 1873          1574.84689203753 
 1874          1523.08310858918 
 1875          1481.11032164464 
 1876          1457.18188051716 
 1877          1401.67772616769 
 1878          1426.13505047214 
 1879          1459.18300741485 
 1880          1529.60491573707 
 1881          1589.68415023537 
 1882          1692.64916435283 
 1883          1644.08808013058 
 1884          1554.45765827087 
 1885          1442.48342490548 
 1886          1393.6463173701 
 1887          1382.82307563474 
 1888          1404.83820135609 
 1889          1430.12217431073 
 1890          1487.53544286546 
 1891          1505.76584529472 
 1892          1565.21499095905 
 1893          1609.24189050402 
 1894          1564.98765840912 
 1895          1547.19566524679 
 1896          1557.75725352573 
 1897          1522.49441131797 
 1898          1468.65210152356 
 1899          1392.7110157868 
 1900          1412.23968303425 
 1901          1449.12665705026 
 1902          1451.92797574436 
 1903          1467.30688208135 
 1904          1470.8494788499 
 1905          1453.66073058539 
 1906          1404.39005796921 
 1907          1418.80104069666 
 1908          1409.40840917582 
 1909          1453.0598216702 
 1910          1441.04676312427 
 1911          1458.48825281258 
 1912          1445.02146791823 
 1913          1428.89404950623 
 1914          1378.72547783996 
 1915          1392.12797732753 
 1916          1444.60176543321 
 1917          1492.87877988866 
 1918          1555.20994057763 
 1919          1489.12675542228 
 1920          1464.985747565 
 1921          1398.69260583708 
 1922          1374.14593529629 
 1923          1348.89690672004 
 1924          1345.39215762008 
 1925          1310.97707900924 
 1926          1288.95979570469 
 1927          1345.75958224353 
 1928          1417.86059348089 
 1929          1516.22527142925 
 1930          1483.29828141177 
 1931          1410.35812398576 
 1932          1310.64752236342 
 1933          1338.53775597181 
 1934          1444.90122185989 
 1935          1552.83855312983 
 1936          1588.22631323108 
 1937          1522.01719613022 
 1938          1457.74312780208 
 1939          1370.63254415944 
 1940          1404.14498406259 
 1941          1410.8385756177 
 1942          1417.25515289232 
 1943          1459.30045453184 
 1944          1469.12541467586 
 1945          1430.40523847172 
 1946          1365.04987354122 
 1947          1337.53788150134 
 1948          1292.16179900046 
 1949          1350.0443618339 
 1950          1420.54674754755 
 1951          1377.21580465285 
 1952          1287.68738794588 
 1953          1279.99522369971 
 1954          1346.3165545084 
 1955          1385.52248140911 
 1956          1429.03579141254 
 1957          1435.80930030285 
 1958          1323.86199004322 
 1959          1367.73537848153 
 1960          1433.61372908913 
 1961          1391.52703199661 
 1962          1237.40078205055 
 1963          1313.21533065181 
 1964          1361.57745448479 
 1965          1364.04966032308 
 1966          1291.0946230628 
 1967          1241.84297715095 
 1968          1148.21986904083 
 1969          1197.39604588898 
 1970          1327.77113535098 
 1971          1449.80531748825 
 1972          1438.49953884196 
 1973          1420.06026971278 
 1974          1314.21367287709 
 1975          1220.07856134368 
 1976          1163.92765914244 
 1977          1126.63603439011 
 1978          1109.81716607151 
 1979          1148.12239319098 
 1980          1192.80354190638 
 1981          1245.97885878208 
 1982          1222.81551355451 
 1983          1252.18097471874 
 1984          1290.52996129834 
 1985          1222.40219672771 
 1986          1097.01594836099 
 1987          1205.92915122464 
 1988          1295.26654619542 
 1989          1224.54424261069 
 1990          1044.71487404548 
 1991          1008.67811076846 
 1992          1020.60360229619 
 1993          1060.01536164911 
 1994          1129.17909934323 
 1995          1222.54542311237 
 1996          1235.1788380548 
 1997          1312.93370844334 
 1998          1147.02836174589 
 1999          1029.95980183447 
 2000          1099.88578876722 
 2001          1193.36141705234 
 2002          1182.71875035257 
 2003          1115.40221440681 
 2004          1117.00529362329 
 2005          1148.38414566673 
 2006          1142.74053909245 
 2007          1084.67563725182 
 2008          1030.17583955329 
 2009          989.292314918128 
 2010          960.8686101842 
 2011          1027.02739765485 
 2012          1116.57941093981 
 2013          1273.0702196466 
 2014          1148.06514152419 
 2015          1075.42775433071 
 2016          1062.35189579885 
 2017          1115.66253438349 
 2018          1102.90010026946 
 2019          1067.05198335222 
 2020          1083.91100782694 
 2021          1090.90233159741 
 2022          1035.94414150258 
 2023          1049.93187933547 
 2024          1095.04470390709 
 2025          1252.35192258658 
 2026          1162.96965991748 
 2027          1081.53593665565 
 2028          992.511323823439 
 2029          997.655119487876 
 2030          954.517382693006 
 2031          930.194470793013 
 2032          907.920028003494 
 2033          1015.98553775731 
 2034          1042.84353993311 
 2035          973.958910535135 
 2036          1141.95643550012 
 2037          1347.00872171425 
 2038          1303.54998606738 
 2039          1119.99471737878 
 2040          1027.02985286155 
 2041          954.554181373549 
 2042          1004.15573712109 
 2043          1071.64216041518 
 2044          1005.55959907285 
 2045          960.599121065401 
 2046          907.52244873387 
 2047          998.167052179652 
 2048          1038.65957317713 
 2049          1027.77063081924 
 2050          983.130226887588 
 2051          1039.80176164631 
 2052          1055.15251215827 
 2053          1014.61349207237 
 2054          940.181292083388 
 2055          969.382650974672 
 2056          1157.0305284819 
 2057          1115.4683412718 
 2058          1070.75837776101 
 2059          1006.47044084291 
 2060          1015.14316398936 
 2061          1034.78267636764 
 2062          1142.57712834453 
 2063          1172.75510433452 
 2064          1086.7105824118 
 2065          1054.96519248952 
 2066          1026.99669224264 
 2067          1098.49488263343 
 2068          998.261797676494 
 2069          972.720387548267 
 2070          951.605846454948 
 2071          921.654682079429 
 2072          954.972700671665 
 2073          980.917855741609 
 2074          941.690966891443 
 2075          952.136448803411 
 2076          964.235483408371 
 2077          972.771279756288 
 2078          1038.01797257754 
 2079          964.382061759736 
 2080          990.106231282533 
 2081          1114.64207068495 
 2082          1087.6171783988 
 2083          843.40769022841 
 2084          885.197037864424 
 2085          862.647276824829 
 2086          876.26150251995 
 2087          929.485626468029 
 2088          953.064804030825 
 2089          979.317442434929 
 2090          896.543415168975 
 2091          914.559250643282 
 2092          952.294309493233 
 2093          973.657041199002 
 2094          1014.79742276385 
 2095          991.473390753901 
 2096          913.164955269228 
 2097          894.416997237182 
 2098          970.58771232062 
 2099          930.410098535738 
 2100          845.501520751972 
 2101          791.009983706971 
 2102          794.59212801129 
 2103          673.80501258031 
 2104          659.670902171769 
 2105          796.911688974106 
 2106          909.995158841145 
 2107          831.167373173679 
 2108          821.33609860147 
 2109          855.931014549529 
 2110          912.814614792812 
 2111          860.230201491155 
 2112          828.194441165241 
 2113          814.862960577282 
 2114          799.964628325372 
 2115          842.135448342713 
 2116          853.866226416235 
 2117          978.091292924331 
 2118          955.792793791466 
 2119          893.026920775543 
 2120          901.274014379792 
 2121          995.469239922132 
 2122          981.64163070568 
 2123          910.686054168668 
 2124          916.121004346794 
 2125          891.603060083485 
 2126          911.985398252984 
 2127          911.761144606061 
 2128          883.376105506201 
 2129          779.058039857103 
 2130          796.215581133409 
 2131          913.878002618645 
 2132          951.047313636599 
 2133          842.410781552562 
 2134          779.691812003555 
 2135          837.815747684491 
 2136          916.006356805972 
 2137          907.529888723127 
 2138          845.160359518518 
 2139          796.064745036007 
 2140          719.328617618541 
 2141          735.059442771841 
 2142          814.759062772275 
 2143          938.292705349347 
 2144          921.057315303313 
 2145          873.403808737905 
 2146          819.233630128151 
 2147          823.478470949132 
 2148          852.200088062129 
 2149          923.74790612923 
 2150          916.997645332615 
 2151          852.447080214852 
 2152          837.075632638632 
 2153          824.792959224487 
 2154          825.182827891731 
 2155          810.5268566475 
 2156          790.508632130337 
 2157          818.836059684955 
 2158          874.317146957268 
 2159          858.845777056903 
 2160          827.920026771927 
 2161          819.999802674713 
 2162          843.524948368452 
 2163          951.200546386388 
 2164          927.053832155215 
 2165          861.496082142602 
 2166          769.402392817897 
 2167          826.726355107254 
 2168          912.30964348768 
 2169          879.099134005703 
 2170          858.670499523406 
 2171          819.053717219552 
 2172          887.090274969366 
 2173          891.179326384419 
 2174          876.207074248452 
 2175          870.124615852138 
 2176          886.051756012586 
 2177          901.471434783712 
 2178          975.300161312444 
 2179          936.988520992447 
 2180          975.297367342914 
 2181          1049.37519785492 
 2182          1029.95653678615 
 2183          953.534475085987 
 2184          1053.3105253475 
 2185          1068.58257174182 
 2186          981.982186013481 
 2187          894.770473607166 
 2188          833.85714250198 
 2189          904.41868631072 
 2190          990.4387483363 
 2191          986.690638178186 
 2192          1015.54491703501 
 2193          952.044231219371 
 2194          859.000618360267 
 2195          795.668683824177 
 2196          852.462693249717 
 2197          886.104755046061 
 2198          865.478439095216 
 2199          799.942983046363 
 2200          839.277599480996 
 2201          943.771478855053 
 2202          993.696029109599 
 2203          926.819585831655 
 2204          889.955770863848 
 2205          847.016164821531 
 2206          860.211913208683 
 2207          917.432495642886 
 2208          870.915652972819 
 2209          854.833376688781 
 2210          870.372331796489 
 2211          865.973396694557 
 2212          805.284264137564 
 2213          851.441796985884 
 2214          866.312945762808 
 2215          838.908206852997 
 2216          795.613682761046 
 2217          735.961840094432 
 2218          648.124585840433 
 2219          709.24105676239 
 2220          773.267937122261 
 2221          846.725245703307 
 2222          876.162921994242 
 2223          805.018838626428 
 2224          739.47312949634 
 2225          746.419771391767 
 2226          804.467505897216 
 2227          809.30718605277 
 2228          767.805053076168 
 2229          845.75629342955 
 2230          868.493205192886 
 2231          918.800618865449 
 2232          863.229011592139 
 2233          699.163913827704 
 2234          625.118251013046 
 2235          626.261341746391 
 2236          654.3168393433 
 2237          710.552424011166 
 2238          772.552591820903 
 2239          826.136931153658 
 2240          730.329091286536 
 2241          721.93412005832 
 2242          738.903858558613 
 2243          789.756564071778 
 2244          752.385396455238 
 2245          722.885474365901 
 2246          660.916340056962 
 2247          645.417784117269 
 2248          628.354421357845 
 2249          659.753700375147 
 2250          664.093295465587 
 2251          689.753995432446 
 2252          664.125981615512 
 2253          626.147609540344 
 2254          660.240115102223 
 2255          665.955062216826 
 2256          654.635129303527 
 2257          665.932948697835 
 2258          709.288328654704 
 2259          702.962295376372 
 2260          756.491196697616 
 2261          657.45624057694 
 2262          579.334674701375 
 2263          629.714227522116 
 2264          693.940486971831 
 2265          706.480192691145 
 2266          748.648858277012 
 2267          796.157325519543 
 2268          774.076196617808 
 2269          757.228267666181 
 2270          715.565692309521 
 2271          725.355761889654 
 2272          753.775477061937 
 2273          752.565280700141 
 2274          743.766927381434 
 2275          742.788541455971 
 2276          664.088892029597 
 2277          759.087903685362 
 2278          722.688594508037 
 2279          602.596308042314 
 2280          588.783565902391 
 2281          723.806950234783 
 2282          755.330293451665 
 2283          695.078363267998 
 2284          585.71580996677 
 2285          581.229676656571 
 2286          633.513888944029 
 2287          723.589996813085 
 2288          678.28744747836 
 2289          595.460015159946 
 2290          563.180506829105 
 2291          551.362345810765 
 2292          670.15463889836 
 2293          730.077970575327 
 2294          649.837176388258 
 2295          601.206106374452 
 2296          685.719841510199 
 2297          679.601561597091 
 2298          567.705214302969 
 2299          570.386728397563 
 2300          581.131280561959 
 2301          561.679317779056 
 2302          571.357225507619 
 2303          526.47180060431 
 2304          484.266707500607 
 2305          475.010319324039 
 2306          532.518108344824 
 2307          611.87651445878 
 2308          700.551360361934 
 2309          687.701870951349 
 2310          650.646390189632 
 2311          528.463708653505 
 2312          455.449454984811 
 2313          455.119355700431 
 2314          450.996065348789 
 2315          458.706184484004 
 2316          446.550397855933 
 2317          450.074575048689 
 2318          536.620143490353 
 2319          590.442586660081 
 2320          573.800387888985 
 2321          550.39970161104 
 2322          594.077833308678 
 2323          592.184445094832 
 2324          584.719695518758 
 2325          632.080655341876 
 2326          502.029732706978 
 2327          304.920145588096 
 2328          300.893964191197 
 2329          360.382024079968 
 2330          463.112053961301 
 2331          485.989967353434 
 2332          399.594082514608 
 2333          428.730229260832 
 2334          542.499757763898 
 2335          449.428185698225 
 2336          352.150008839701 
 2337          401.800784083444 
 2338          371.762394446579 
 2339          313.813159413352 
##END=
