##TITLE=1-butanol 1.jdx
##JCAMP-DX=5.00
##DATE=7/1/2010 2:16:08 PM
##DATATYPE=Raman Spectrum
##DATA CLASS=XYDATA
##ORIGIN=ENWAVE
##OWNER=ENWAVE
##NPOINTS=2090
##FIRSTX= 1
##LASTX= 2339
##MAXX= 2339
##MINX= 1
##XFACTOR=1.0000000000
##YFACTOR=1.0000000000
##FIRSTY= 320.173667222222
##DELTAX=1.000000000000
##XUNITS=1/CM
##YUNITS=ARBITRARY UNITS
##XYDATA=(X++(Y..Y))
 1             320.173667222222 
 251           320.173667222222 
 252           1076.90660540565 
 253           2328.07517378434 
 254           3533.69891983189 
 255           4653.09635288287 
 256           5375.39628269121 
 257           5388.08279308359 
 258           5350.21795369168 
 259           5454.12798424165 
 260           5508.05136110551 
 261           5593.58975222995 
 262           5713.63392458206 
 263           5825.01447701493 
 264           5955.09105002924 
 265           6036.44983009792 
 266           6023.92951187742 
 267           6015.28200116022 
 268           5999.77428198163 
 269           5992.27881433653 
 270           6109.07242015552 
 271           6204.12058563735 
 272           6200.24620989008 
 273           6235.65162860681 
 274           6241.59330115596 
 275           6166.67764587403 
 276           6066.77028154155 
 277           5971.8512495705 
 278           5882.57887074694 
 279           5792.85004191072 
 280           5744.53799155193 
 281           5741.9600864289 
 282           5750.61209237971 
 283           5746.40221829237 
 284           5720.02826414747 
 285           5653.9490534195 
 286           5502.83945658244 
 287           5371.91462337848 
 288           5350.96116740744 
 289           5325.77495920565 
 290           5288.98019745037 
 291           5258.01809946641 
 292           5193.68269851366 
 293           5117.5284005827 
 294           5066.68615506952 
 295           5047.13447648283 
 296           4985.43346322403 
 297           4884.11052658367 
 298           4822.62855661248 
 299           4745.65548836782 
 300           4668.53339118787 
 301           4660.46364933457 
 302           4662.96641341914 
 303           4668.22020352573 
 304           4678.61883672255 
 305           4597.47753616479 
 306           4469.86172034785 
 307           4382.64865521947 
 308           4326.91236829887 
 309           4318.18266803482 
 310           4347.39272673658 
 311           4354.7355280112 
 312           4356.69453077179 
 313           4378.34921747713 
 314           4418.53690159017 
 315           4472.7420489485 
 316           4509.11551405967 
 317           4498.80960049603 
 318           4507.36390488133 
 319           4558.21829552521 
 320           4637.39694019257 
 321           4751.3884382662 
 322           4844.43489581266 
 323           4887.78306990348 
 324           4968.9226802255 
 325           5075.22972229239 
 326           5170.33270788433 
 327           5267.26777710647 
 328           5410.79804452588 
 329           5619.73211644826 
 330           5865.20012501448 
 331           6097.74973100199 
 332           6357.46487332221 
 333           6701.42004222104 
 334           7005.15302716984 
 335           7392.30309098091 
 336           7999.20688053981 
 337           8592.79664709847 
 338           9224.06039373149 
 339           9972.31554960441 
 340           10698.1467802511 
 341           11403.8664359098 
 342           12119.115766855 
 343           12837.06779414 
 344           13581.8441704088 
 345           14308.1060919941 
 346           14920.6992499264 
 347           15401.9943981691 
 348           15748.1376177278 
 349           15922.2787434409 
 350           15838.3504336366 
 351           15599.7315291567 
 352           15337.9662941104 
 353           15064.6312230078 
 354           14804.9244925408 
 355           14527.5965226741 
 356           14146.4549158465 
 357           13679.8184210584 
 358           13149.4987106024 
 359           12590.3956659957 
 360           12126.8941345844 
 361           11720.0125384892 
 362           11266.4265902502 
 363           10773.3135730331 
 364           10256.0911688876 
 365           9719.3156451343 
 366           9182.08866734333 
 367           8793.31592145899 
 368           8529.20517601549 
 369           8221.25952941652 
 370           7988.19550366361 
 371           7845.35779244786 
 372           7707.36249924776 
 373           7564.42491497067 
 374           7457.52480404042 
 375           7375.69199146962 
 376           7242.21719305498 
 377           7312.65924554439 
 378           7615.66601562497 
 379           7882.16816249757 
 380           8320.46274800128 
 381           8969.46084036937 
 382           9715.58616584428 
 383           10692.6751034224 
 384           11992.7017165509 
 385           13649.0908194673 
 386           15708.0280720423 
 387           18395.0824851597 
 388           21719.6616155235 
 389           25383.5276215793 
 390           29276.6189499168 
 391           32873.0554232422 
 392           35471.0517225069 
 393           36979.5799048405 
 394           37134.775594595 
 395           35769.5728252799 
 396           33203.2544276013 
 397           29824.4105140239 
 398           26038.6101276988 
 399           22244.37827672 
 400           18754.9933249753 
 401           15763.4281083191 
 402           13320.951749228 
 403           11339.7376540928 
 404           9860.23173905653 
 405           8816.69221390295 
 406           7893.95012001014 
 407           7217.12734934443 
 408           6771.57371580319 
 409           6292.7636766534 
 410           5898.66802030643 
 411           5622.44791751372 
 412           5393.44487727473 
 413           5212.00207086925 
 414           5050.68138418879 
 415           4887.64222284172 
 416           4738.95057566567 
 417           4622.34861128216 
 418           4559.52017365777 
 419           4546.50139340198 
 420           4495.81029255481 
 421           4422.91616996527 
 422           4368.46120972751 
 423           4287.70599797979 
 424           4247.58567454036 
 425           4273.73082840914 
 426           4298.75706831008 
 427           4344.6279932623 
 428           4412.67442455204 
 429           4475.49426905638 
 430           4525.79828236917 
 431           4560.35274942945 
 432           4627.16208840836 
 433           4812.25977361891 
 434           5006.99701396449 
 435           5218.87600330438 
 436           5564.98124490207 
 437           5964.39253476955 
 438           6367.17566718426 
 439           6762.86740866176 
 440           7148.19633034801 
 441           7609.18942430744 
 442           8177.98531676884 
 443           8787.75303165867 
 444           9376.39977369302 
 445           9834.72619900612 
 446           10088.036106388 
 447           10208.4278620408 
 448           10256.1493433439 
 449           10248.7848780425 
 450           10173.6805483278 
 451           10044.4177802896 
 452           9818.00650752773 
 453           9447.3332745368 
 454           9003.72145052519 
 455           8601.21406640653 
 456           8266.62149756803 
 457           7917.62919573582 
 458           7613.96722077455 
 459           7264.98132189587 
 460           6772.31986730663 
 461           6415.01804985945 
 462           6109.20074384842 
 463           5788.1479075977 
 464           5685.37883468365 
 465           5692.33126408276 
 466           5701.88340840272 
 467           5707.18118228479 
 468           5693.5624786211 
 469           5735.82446809217 
 470           5862.19466654455 
 471           5976.73116036289 
 472           6125.77488455149 
 473           6353.67570374417 
 474           6665.94536349635 
 475           7092.45480833902 
 476           7657.92229992933 
 477           8336.22505072438 
 478           9046.42362928102 
 479           9782.32736175343 
 480           10410.1307299972 
 481           10761.1055765875 
 482           10942.9328205097 
 483           10976.385816621 
 484           10919.3817331948 
 485           10909.4773155425 
 486           10682.7640879769 
 487           10199.8217055577 
 488           9661.14315420908 
 489           9082.79104084427 
 490           8421.33153875484 
 491           7774.87967865315 
 492           7362.60388362948 
 493           6976.29849739699 
 494           6635.4718119501 
 495           6489.99053870026 
 496           6354.06830489858 
 497           6278.08926009684 
 498           6330.73794351647 
 499           6442.40517012415 
 500           6593.16610551783 
 501           6836.19236566532 
 502           7184.29075722393 
 503           7508.89292631055 
 504           7878.91479443787 
 505           8410.84352685268 
 506           9106.96932914319 
 507           9766.73374251365 
 508           10405.5895112104 
 509           10956.7407377407 
 510           11057.7263745589 
 511           11106.8811531317 
 512           11094.0571944329 
 513           10650.9000003755 
 514           10213.4007844211 
 515           9658.64894458792 
 516           8831.34513812815 
 517           8045.05952076802 
 518           7391.98360441388 
 519           6798.00741169816 
 520           6204.71052585546 
 521           5727.4856726161 
 522           5277.46934148199 
 523           4832.49267746519 
 524           4521.48625297657 
 525           4298.94488938782 
 526           4077.86626200003 
 527           3827.65755887835 
 528           3605.27837903633 
 529           3402.03148063949 
 530           3233.00233938557 
 531           3124.52792368298 
 532           3012.98245167637 
 533           2858.77328844565 
 534           2718.30602322451 
 535           2703.06757208337 
 536           2735.26802769508 
 537           2726.50563408349 
 538           2666.43440514851 
 539           2624.0583036419 
 540           2565.64518787854 
 541           2498.0482310576 
 542           2473.25150550397 
 543           2441.37372601188 
 544           2421.55920785483 
 545           2409.91130332735 
 546           2331.49949751379 
 547           2228.49863586768 
 548           2162.15798224049 
 549           2151.75268595538 
 550           2157.36788295293 
 551           2163.28773148684 
 552           2179.4414290831 
 553           2211.71777256271 
 554           2223.87124972374 
 555           2244.61213305342 
 556           2273.30319465918 
 557           2251.14335139548 
 558           2245.3799434981 
 559           2260.68852317463 
 560           2266.06965204963 
 561           2284.08861844282 
 562           2311.82500364546 
 563           2327.30092482779 
 564           2308.477474961 
 565           2256.71620873086 
 566           2209.13616628352 
 567           2185.03295406959 
 568           2164.0938724115 
 569           2130.40665708244 
 570           2092.74988376892 
 571           2061.37134140044 
 572           2028.27362412598 
 573           1997.05170265289 
 574           1997.74607921802 
 575           2048.03433281016 
 576           2103.78793564835 
 577           2126.6360728567 
 578           2139.24566528185 
 579           2140.38589567066 
 580           1962.92022771238 
 581           1822.72690358746 
 582           1877.86624177905 
 583           1973.0446942983 
 584           2026.04541318903 
 585           2012.58257291279 
 586           1961.91136710756 
 587           1945.39034984096 
 588           2000.9969136298 
 589           2065.77317853618 
 590           2053.27463170757 
 591           1984.69249056843 
 592           1967.67332456098 
 593           1985.3830625879 
 594           1951.55829095182 
 595           1939.58890746353 
 596           1892.47030205238 
 597           1838.58197276889 
 598           1895.24682070596 
 599           1931.7828319784 
 600           1954.09598149799 
 601           2004.63345775933 
 602           2053.9994623025 
 603           2122.88199553282 
 604           2135.74221926095 
 605           2069.18913220234 
 606           2045.60673691468 
 607           1961.20367017722 
 608           1852.98075246839 
 609           1827.15910001013 
 610           1825.98200210595 
 611           1840.47953640489 
 612           1890.06582140047 
 613           1952.17132806583 
 614           1931.92338166325 
 615           1925.46721088381 
 616           1963.18096219704 
 617           1961.49798331459 
 618           1932.34935452964 
 619           1923.96012736025 
 620           1939.03618691245 
 621           1956.43222935215 
 622           2051.0322730875 
 623           2126.19156383409 
 624           2123.5770889656 
 625           2132.53173163501 
 626           2132.59869060451 
 627           2086.53870244344 
 628           2017.99526030567 
 629           1992.87129158329 
 630           1944.13389029118 
 631           1909.25806075509 
 632           1923.83370599668 
 633           1909.58467821406 
 634           1921.38244478958 
 635           1948.22964041146 
 636           1954.97436683253 
 637           1985.10773293984 
 638           2032.61426259081 
 639           2049.4401324803 
 640           2020.49284982009 
 641           2015.8930538352 
 642           2043.20014389069 
 643           2072.14655447928 
 644           2102.43110931305 
 645           2178.06112984746 
 646           2141.55986900831 
 647           2000.76580648337 
 648           1911.16357296516 
 649           1888.23745685803 
 650           1871.8390547121 
 651           1840.81754919263 
 652           1829.20887529659 
 653           1863.04877308327 
 654           1913.83935424177 
 655           1949.63076981155 
 656           1972.7784079161 
 657           2015.64647545852 
 658           2041.07992242259 
 659           2042.19790998108 
 660           2049.1016761814 
 661           2050.63043440539 
 662           2074.83553255396 
 663           2095.98232714571 
 664           2064.55247967335 
 665           2034.61705528236 
 666           2016.85481657359 
 667           1976.17881612876 
 668           1902.0523487451 
 669           1874.49475984012 
 670           1868.48944102631 
 671           1902.87501600405 
 672           2014.6166744772 
 673           2092.81806554198 
 674           2127.8134519191 
 675           2094.51013095578 
 676           1991.14340842073 
 677           1972.02435990824 
 678           1983.68780680987 
 679           2004.33565403854 
 680           2040.11502316644 
 681           1959.58656885051 
 682           1879.38595681083 
 683           1847.66228145913 
 684           1818.311303149 
 685           1842.45423853221 
 686           1886.97021572584 
 687           1921.37222492692 
 688           1941.88600401151 
 689           1942.56698639899 
 690           1949.67943156748 
 691           1999.62674128602 
 692           2071.45409193216 
 693           2076.09464427387 
 694           2084.12145328447 
 695           2079.04423391149 
 696           2033.66288818264 
 697           2039.82943833522 
 698           2048.90721714242 
 699           2051.3128983927 
 700           2071.77927936744 
 701           2094.40267165285 
 702           2075.94920805376 
 703           2036.44333500475 
 704           2021.21430161239 
 705           2044.47010211783 
 706           2096.63778257185 
 707           2165.66708300482 
 708           2215.16862656722 
 709           2206.22542231647 
 710           2184.83576253182 
 711           2175.89738904355 
 712           2187.95983264517 
 713           2225.87095912579 
 714           2275.17388696235 
 715           2296.20138324935 
 716           2273.83176965648 
 717           2230.23555183695 
 718           2197.56874484327 
 719           2211.7404800105 
 720           2272.93630158324 
 721           2353.68698668219 
 722           2440.22668298539 
 723           2547.67658919966 
 724           2645.16840337014 
 725           2688.70885909667 
 726           2697.918738507 
 727           2759.83063044024 
 728           2845.68414108305 
 729           2940.68837691165 
 730           3106.02973381619 
 731           3234.796662631 
 732           3356.65566004477 
 733           3520.26391208532 
 734           3677.36332731425 
 735           3760.12923940238 
 736           3815.01108303407 
 737           3849.63861717631 
 738           3834.61566486098 
 739           3835.62755852662 
 740           3864.49684686308 
 741           3925.65919910643 
 742           3997.7761517215 
 743           4030.3596572229 
 744           4116.94413237187 
 745           4194.97035847397 
 746           4169.56297141608 
 747           4075.54445432643 
 748           3940.64858172499 
 749           3821.32736922521 
 750           3754.51348848187 
 751           3717.42669691187 
 752           3654.39173789984 
 753           3599.58112395965 
 754           3554.73451069448 
 755           3503.47474578391 
 756           3493.37017654375 
 757           3460.87932614111 
 758           3424.54093974553 
 759           3433.47953572839 
 760           3446.53314241459 
 761           3401.74315723749 
 762           3342.17411825286 
 763           3333.43239833415 
 764           3379.17840257953 
 765           3441.34742118231 
 766           3531.48945398069 
 767           3616.76897824525 
 768           3655.23231365202 
 769           3696.37163155096 
 770           3741.90673260569 
 771           3768.78759701952 
 772           3808.24293208401 
 773           3932.56361915982 
 774           4073.26071976862 
 775           4235.3103255117 
 776           4421.31221645928 
 777           4602.46432200881 
 778           4806.38338662679 
 779           4984.0653864793 
 780           5167.23110938131 
 781           5427.64140468631 
 782           5726.1254762497 
 783           5948.3259845245 
 784           6127.3147207703 
 785           6302.36131665689 
 786           6426.53925990942 
 787           6533.46380022289 
 788           6681.31407932013 
 789           6836.38571075183 
 790           7006.3528493522 
 791           7365.19467640384 
 792           7752.25614454042 
 793           8174.9448657832 
 794           8703.02474690887 
 795           9304.02133814744 
 796           10124.2858670256 
 797           11478.4176151735 
 798           13109.0396996149 
 799           14702.940724865 
 800           16877.8693272427 
 801           19458.5301593099 
 802           22267.0165994551 
 803           25070.652722254 
 804           27359.7302764911 
 805           28806.0326612379 
 806           29264.6861047152 
 807           28668.4789203558 
 808           27112.5536129676 
 809           25006.7876733728 
 810           22824.5392383925 
 811           20963.111226493 
 812           19764.1577260017 
 813           19376.3062899745 
 814           19598.1779199764 
 815           21471.3801408106 
 816           24244.1548044804 
 817           26916.1916357976 
 818           31329.0831716764 
 819           36674.326520919 
 820           42035.9696904559 
 821           47030.9033989844 
 822           51137.9597066319 
 823           53260.0389584059 
 824           53071.3358068389 
 825           50609.3327702253 
 826           46153.7840055294 
 827           40425.2633331075 
 828           34420.986662064 
 829           28887.8655249676 
 830           24205.0581696992 
 831           20665.4197548271 
 832           18602.5598560467 
 833           17185.4476443378 
 834           16253.9146283838 
 835           15654.347790262 
 836           14965.6916590031 
 837           15434.2631155849 
 838           16288.7671911515 
 839           17037.2513192838 
 840           17942.5039813201 
 841           18702.0657020693 
 842           19116.1993414986 
 843           19105.7343348633 
 844           18952.308542239 
 845           18803.2114603368 
 846           17973.1362099184 
 847           16796.6471907562 
 848           15479.2253286455 
 849           14009.2973065555 
 850           12497.3199728049 
 851           11027.1090902754 
 852           9925.20521428309 
 853           9162.98973462076 
 854           8497.11179995172 
 855           7940.80396197982 
 856           7530.90181783719 
 857           7237.23935624684 
 858           7072.60209107707 
 859           7035.89056729501 
 860           7012.00130966003 
 861           7080.75390549153 
 862           7182.80307233332 
 863           7349.30429647601 
 864           7726.63057823704 
 865           8234.86869195018 
 866           8923.84132246493 
 867           9824.31827108268 
 868           10797.027780225 
 869           11757.1608175975 
 870           13064.5220344154 
 871           14451.1367361615 
 872           15545.0303207104 
 873           16463.1449818021 
 874           17541.244977454 
 875           18239.2679383419 
 876           18487.9720271779 
 877           18044.0857499195 
 878           16743.4508530634 
 879           15155.1717223377 
 880           13766.6568655018 
 881           12391.7559558866 
 882           11177.1308490598 
 883           10453.2171196288 
 884           9882.97439167624 
 885           9269.59168053367 
 886           8860.5755313265 
 887           8743.46405615133 
 888           8840.36217892934 
 889           9331.18351559067 
 890           10056.4868261158 
 891           11019.4258545217 
 892           12041.7731434939 
 893           13101.6604269054 
 894           14778.3157389445 
 895           16226.3964389517 
 896           17266.881205977 
 897           17791.6003702972 
 898           17450.8947083823 
 899           16551.6468616798 
 900           15338.9957982507 
 901           13751.1018824667 
 902           12067.0494993391 
 903           10644.446454275 
 904           9141.05651310265 
 905           8171.09787241009 
 906           7458.33775511887 
 907           6725.61554646164 
 908           6170.05326799348 
 909           5573.92507682361 
 910           5211.01375555301 
 911           4926.15510253465 
 912           4685.26551006853 
 913           4676.42020385417 
 914           4632.42194234897 
 915           4532.58843702049 
 916           4332.46428900414 
 917           4201.28482757714 
 918           4303.93359374984 
 919           4345.80556109145 
 920           4351.74244096255 
 921           4239.2809864116 
 922           4127.71345413603 
 923           4195.09820141751 
 924           4256.13728428696 
 925           4377.40120363326 
 926           4593.86719411443 
 927           4837.54123497246 
 928           5065.61755202198 
 929           5337.90978487277 
 930           5654.16972839144 
 931           6072.02861958126 
 932           6575.65865714013 
 933           7076.41369175013 
 934           7574.97856683279 
 935           8229.4662999256 
 936           8970.26161432131 
 937           9784.37611944312 
 938           10502.4661203549 
 939           10846.3518624858 
 940           11151.4193294785 
 941           11460.4131846815 
 942           11861.9070159045 
 943           12303.7278819099 
 944           12582.0319034725 
 945           12842.9059004545 
 946           13219.4077985212 
 947           13704.7032315322 
 948           14174.6478935735 
 949           14545.9213196922 
 950           14841.8585015651 
 951           14889.5835692614 
 952           14812.4418390543 
 953           14761.2806505075 
 954           14760.7458350911 
 955           14830.8763575294 
 956           15004.7498677383 
 957           15320.4952140258 
 958           15645.7758728471 
 959           16041.3432395567 
 960           16704.2074708802 
 961           17222.4869138718 
 962           17488.0167072697 
 963           17386.7101605324 
 964           16828.8711506304 
 965           15859.7181846571 
 966           14614.065093581 
 967           13351.1965486354 
 968           12099.6907724517 
 969           10826.8257571171 
 970           9596.16817768209 
 971           8538.84735010355 
 972           7766.08922919938 
 973           7246.76553527758 
 974           6835.38127397096 
 975           6492.2571653845 
 976           6282.40601707706 
 977           6109.35533492375 
 978           5893.42353433609 
 979           5868.51821078617 
 980           6019.87139044036 
 981           6121.86868668312 
 982           6235.90349303441 
 983           6468.26220145289 
 984           6779.40248719811 
 985           7104.3773212898 
 986           7380.54470108843 
 987           7555.73225460748 
 988           7644.57264122878 
 989           7621.38396126051 
 990           7438.98077142838 
 991           7122.26606000903 
 992           6807.24757043328 
 993           6585.20702010653 
 994           6303.29873397789 
 995           6192.25983493547 
 996           6138.60967406276 
 997           6161.72561685657 
 998           6482.34527254494 
 999           6753.83114138507 
 1000          6988.89540362399 
 1001          7290.48941042698 
 1002          7624.38496252992 
 1003          8008.66696393315 
 1004          8536.75368835867 
 1005          9001.19764437349 
 1006          9480.75632982872 
 1007          9841.38611935373 
 1008          10002.4153136136 
 1009          10060.9878600481 
 1010          9993.33835759421 
 1011          9725.44214231967 
 1012          9433.77403783313 
 1013          9365.46657680487 
 1014          9541.35951128874 
 1015          9814.25567833446 
 1016          10220.8028200904 
 1017          10925.4668746263 
 1018          11893.9786675176 
 1019          13126.1627273659 
 1020          14663.0492840603 
 1021          16340.787407021 
 1022          17955.4062909357 
 1023          20152.7677664396 
 1024          22400.2041816662 
 1025          24100.340714709 
 1026          24999.4439068772 
 1027          24695.1208662121 
 1028          23367.1157672143 
 1029          21749.0816886153 
 1030          19859.5372375119 
 1031          18137.0930820732 
 1032          17140.4634733343 
 1033          16416.3031554672 
 1034          15910.8456205552 
 1035          15715.5483799926 
 1036          15562.9294636426 
 1037          15534.2429787399 
 1038          15895.6375941625 
 1039          16375.3737148384 
 1040          17007.9244583197 
 1041          17836.2043099522 
 1042          18738.0482764441 
 1043          19615.1636368999 
 1044          20450.928680479 
 1045          21144.6581422501 
 1046          21538.5653657022 
 1047          21631.661172215 
 1048          21709.8892004301 
 1049          21638.5721506016 
 1050          21175.6120857584 
 1051          20809.8148275593 
 1052          20755.3215050278 
 1053          20900.1354593361 
 1054          21288.8781467437 
 1055          21655.5244153875 
 1056          21742.387485481 
 1057          21840.3144202854 
 1058          21677.4079905175 
 1059          21482.758833193 
 1060          21262.6001833285 
 1061          21104.837132951 
 1062          21276.5176986926 
 1063          21771.6446355976 
 1064          22440.9825441378 
 1065          23118.4780151703 
 1066          23701.5951486115 
 1067          24154.7411792548 
 1068          24286.8831590973 
 1069          23905.982925957 
 1070          23366.093625126 
 1071          22661.8644409078 
 1072          21956.9195300761 
 1073          21116.2757641684 
 1074          19971.4321083869 
 1075          18793.2715891094 
 1076          17789.2552219977 
 1077          16787.7108400798 
 1078          15824.8760857121 
 1079          14888.1531796576 
 1080          13968.5417871824 
 1081          13129.9912403699 
 1082          12330.0610816051 
 1083          11603.034256884 
 1084          10976.9470325883 
 1085          10467.6447500379 
 1086          10032.0162915911 
 1087          9671.05717982513 
 1088          9488.98199336692 
 1089          9445.30986292934 
 1090          9430.55554534105 
 1091          9434.23250235089 
 1092          9417.88636729115 
 1093          9467.55027294016 
 1094          9700.95480110654 
 1095          9904.77795895942 
 1096          10200.4715620827 
 1097          10608.5924134731 
 1098          11167.9080674889 
 1099          11893.341242965 
 1100          12723.906425482 
 1101          13590.0631256051 
 1102          14428.2776777108 
 1103          15484.2532978373 
 1104          16836.2123312723 
 1105          18373.6647124389 
 1106          19893.1960460587 
 1107          21178.3721675389 
 1108          22256.8218933042 
 1109          23436.741221946 
 1110          23864.8307503247 
 1111          23582.0770720702 
 1112          23144.2678011354 
 1113          22465.0210845473 
 1114          21243.9434117325 
 1115          19792.9672952874 
 1116          18135.2728392425 
 1117          16763.540159406 
 1118          15669.0943480615 
 1119          14667.9142594763 
 1120          13765.0004494247 
 1121          12854.393200797 
 1122          12356.7483384652 
 1123          11976.6689046455 
 1124          11547.7033000471 
 1125          11058.1588964515 
 1126          10640.0659609901 
 1127          10453.6391733054 
 1128          10331.4796268882 
 1129          10173.5818924543 
 1130          9907.61723380886 
 1131          9506.84928098413 
 1132          9125.50372230562 
 1133          8938.98203910895 
 1134          8886.68321066605 
 1135          8795.9842449813 
 1136          8680.77395399112 
 1137          8367.91097681689 
 1138          7993.27388015972 
 1139          7602.32009388324 
 1140          7175.90180595333 
 1141          6845.04216244967 
 1142          6495.98269859708 
 1143          6115.63962133148 
 1144          5748.79336248338 
 1145          5400.84481741759 
 1146          5120.4682424616 
 1147          4906.13317958726 
 1148          4674.64295517185 
 1149          4460.75364897935 
 1150          4256.43534352504 
 1151          4121.94214301947 
 1152          4030.86459388314 
 1153          3915.4620265277 
 1154          3779.6108036548 
 1155          3690.33520307802 
 1156          3687.96880055328 
 1157          3721.74027182676 
 1158          3634.35397691768 
 1159          3539.49308955417 
 1160          3497.74928586367 
 1161          3446.00212455934 
 1162          3355.95716046477 
 1163          3225.73878889122 
 1164          3151.0505535917 
 1165          3167.88489200443 
 1166          3276.05283417987 
 1167          3324.82108412796 
 1168          3243.76105077734 
 1169          3161.32706235615 
 1170          3152.95068448226 
 1171          3141.31243162437 
 1172          3123.40305142337 
 1173          3145.4343844587 
 1174          3201.31517390891 
 1175          3204.03710143339 
 1176          3127.67421384947 
 1177          3035.79779663668 
 1178          2944.96441077702 
 1179          2949.31538553965 
 1180          3090.10232967172 
 1181          3258.15858190415 
 1182          3334.68605750194 
 1183          3308.13593482749 
 1184          3260.76926135235 
 1185          3287.83183459768 
 1186          3394.46946495161 
 1187          3454.1052013782 
 1188          3504.91128384269 
 1189          3508.79508030182 
 1190          3524.71569316232 
 1191          3605.4327072507 
 1192          3686.22024769646 
 1193          3794.17208677425 
 1194          3866.56843466541 
 1195          3950.65816486104 
 1196          4064.05108112115 
 1197          4201.87498427906 
 1198          4344.42952956009 
 1199          4465.11395260911 
 1200          4603.73471054291 
 1201          4822.15565081165 
 1202          4985.88437935456 
 1203          5124.32086317834 
 1204          5256.38584592443 
 1205          5379.2554996847 
 1206          5518.76357688316 
 1207          5683.28390448152 
 1208          5849.47887371618 
 1209          6038.82381701344 
 1210          6270.11534021537 
 1211          6491.66687079032 
 1212          6656.28946922973 
 1213          6805.79464398856 
 1214          6933.48380171682 
 1215          7018.52134942765 
 1216          7128.21949844259 
 1217          7232.99817611059 
 1218          7231.16816309467 
 1219          7261.88425464871 
 1220          7127.81966797365 
 1221          6972.06324793829 
 1222          6880.49539508511 
 1223          6775.9157765271 
 1224          6724.81249925727 
 1225          6604.86225002703 
 1226          6392.45274826701 
 1227          6217.01082608574 
 1228          6030.37019860814 
 1229          5966.95533258451 
 1230          5993.09261985897 
 1231          6012.21662226905 
 1232          6060.6647297735 
 1233          6093.90688708963 
 1234          6235.49249005746 
 1235          6431.41393023283 
 1236          6586.21973934124 
 1237          6744.40055015475 
 1238          6891.76286420954 
 1239          7112.98639663804 
 1240          7453.07687931339 
 1241          7782.11537651032 
 1242          8163.82065650337 
 1243          8489.67376792734 
 1244          8810.07216116641 
 1245          9152.57696634302 
 1246          9500.05561408907 
 1247          9838.61601757239 
 1248          10142.5953436053 
 1249          10413.574026052 
 1250          10636.3538667238 
 1251          10663.0293440543 
 1252          10563.7490142981 
 1253          10404.5888884354 
 1254          10167.3318447668 
 1255          9827.8717010505 
 1256          9379.99158741804 
 1257          8927.14287578608 
 1258          8550.53963152411 
 1259          8179.61914195021 
 1260          7896.28151882955 
 1261          7642.04934029354 
 1262          7403.34817690686 
 1263          7207.93876391687 
 1264          6979.17224360601 
 1265          6810.71836710523 
 1266          6796.56750574643 
 1267          6799.47272055821 
 1268          6793.15919962945 
 1269          6873.40673503868 
 1270          6901.42376672778 
 1271          6903.54818054007 
 1272          7027.45737538437 
 1273          7177.69112480386 
 1274          7428.70435596488 
 1275          7799.91167968739 
 1276          8160.52070675539 
 1277          8603.6960520328 
 1278          9092.5591965348 
 1279          9598.94470322207 
 1280          10101.2059235871 
 1281          10690.2540814955 
 1282          11449.6161447293 
 1283          12523.7449078303 
 1284          13756.0545142348 
 1285          15061.582551438 
 1286          16681.8532095977 
 1287          18584.6502273596 
 1288          20747.574447421 
 1289          22862.9788715018 
 1290          25513.4379882992 
 1291          28097.6606505033 
 1292          30486.5312362432 
 1293          32292.7972154842 
 1294          33326.646134789 
 1295          34060.0222351028 
 1296          34414.9370839006 
 1297          34119.4258291943 
 1298          33350.7928136893 
 1299          32661.3415325421 
 1300          31087.2336788755 
 1301          29343.3560800749 
 1302          27893.2141885153 
 1303          26532.985912494 
 1304          25084.9370482902 
 1305          23541.5535819235 
 1306          21987.3768172194 
 1307          20301.3139553263 
 1308          18666.9836500195 
 1309          17072.0901516594 
 1310          15605.274883838 
 1311          14470.0337018746 
 1312          13373.793817684 
 1313          12490.9076906811 
 1314          11830.4607894437 
 1315          11214.0842428972 
 1316          10871.8213435746 
 1317          10608.6737568711 
 1318          10303.155907227 
 1319          9970.16448397436 
 1320          9611.13954191858 
 1321          9247.97429585899 
 1322          8914.89530854751 
 1323          8645.31648262364 
 1324          8383.0928395001 
 1325          8175.45687910784 
 1326          8077.34847945606 
 1327          7970.69715855531 
 1328          7882.26741524888 
 1329          7832.47030659035 
 1330          7840.52880959438 
 1331          7813.90968104606 
 1332          7795.19866955128 
 1333          7687.08270391679 
 1334          7582.76855637037 
 1335          7661.40742865157 
 1336          7770.05010329327 
 1337          7815.16526921836 
 1338          7834.6777605479 
 1339          7635.68517179607 
 1340          7591.68473267815 
 1341          7566.12321424455 
 1342          7544.00972725299 
 1343          7569.20382013009 
 1344          7532.34535849006 
 1345          7451.08809666282 
 1346          7371.35151286702 
 1347          7304.43923702138 
 1348          7286.87245908304 
 1349          7288.51432427367 
 1350          7236.70694807499 
 1351          7159.69060128817 
 1352          7137.73385017829 
 1353          7088.50371285098 
 1354          7027.6176628306 
 1355          7021.08768528352 
 1356          7007.60016952016 
 1357          7102.24725375857 
 1358          7196.04226374081 
 1359          7205.45092784036 
 1360          7252.24930135358 
 1361          7334.6028653086 
 1362          7496.26908602608 
 1363          7637.49434187089 
 1364          7763.65953795924 
 1365          7778.61523097331 
 1366          7762.58119796887 
 1367          7649.64061456614 
 1368          7533.55522669869 
 1369          7500.27929203211 
 1370          7543.71625424453 
 1371          7576.17776891584 
 1372          7594.2758779189 
 1373          7653.29272922858 
 1374          7695.92769389643 
 1375          7775.45797129062 
 1376          7850.33251953108 
 1377          7896.78363544234 
 1378          7955.59341968965 
 1379          8004.73471429346 
 1380          8022.76972651053 
 1381          7965.69073993435 
 1382          7908.46489167399 
 1383          7750.94100901798 
 1384          7453.77627428675 
 1385          7324.84835077245 
 1386          7375.98182690976 
 1387          7356.049179928 
 1388          7342.49837765711 
 1389          7145.09071445784 
 1390          7166.6491408166 
 1391          7356.06813929167 
 1392          7441.58317463463 
 1393          7485.19157898636 
 1394          7454.02055514027 
 1395          7522.18097816662 
 1396          7656.63703482202 
 1397          7715.66362868881 
 1398          7804.39305234253 
 1399          7956.03207900095 
 1400          8068.34889442424 
 1401          8157.0110268751 
 1402          8249.6889054538 
 1403          8353.68621660583 
 1404          8423.54107867363 
 1405          8531.22333063591 
 1406          8747.95864254448 
 1407          8994.04635429469 
 1408          9277.96291713198 
 1409          9582.97827222372 
 1410          9860.93769234838 
 1411          10175.0235465114 
 1412          10438.8102682015 
 1413          10631.5899453814 
 1414          10872.8999903204 
 1415          11146.9264700569 
 1416          11539.228572627 
 1417          11961.8523129496 
 1418          12477.6250237859 
 1419          12994.3460296832 
 1420          13604.1026282474 
 1421          14209.4325731199 
 1422          14933.4101069653 
 1423          15756.6724868889 
 1424          16740.4129943133 
 1425          18061.7674310008 
 1426          19678.6671007516 
 1427          21445.8098174974 
 1428          23367.3137755531 
 1429          25298.2825630779 
 1430          27131.408652122 
 1431          28972.7896909131 
 1432          30611.6702557872 
 1433          32037.0557385516 
 1434          32998.9864444109 
 1435          33816.3398284542 
 1436          34497.8661029004 
 1437          35298.2873658743 
 1438          36106.81049541 
 1439          37001.4519451392 
 1440          37999.0066266107 
 1441          38947.5702106459 
 1442          39957.192281692 
 1443          41056.7320614735 
 1444          42075.2623054306 
 1445          43111.9292376388 
 1446          43858.6747995513 
 1447          43979.0122831164 
 1448          43997.0341739013 
 1449          43986.1048714707 
 1450          43905.798071489 
 1451          43154.0224901356 
 1452          42205.6224095728 
 1453          41273.99539504 
 1454          40389.4731824657 
 1455          39923.0589853056 
 1456          39532.9071556809 
 1457          38857.6978431104 
 1458          38101.4807871204 
 1459          37306.3088037415 
 1460          36468.9000625135 
 1461          35679.1259187722 
 1462          34934.8536900926 
 1463          34229.8452655814 
 1464          33557.2355160364 
 1465          32737.2902230129 
 1466          31667.896118153 
 1467          30631.0345373706 
 1468          29822.3318762764 
 1469          29064.0813047918 
 1470          28215.7547695792 
 1471          27412.1676380577 
 1472          26829.4920147165 
 1473          26598.1171518264 
 1474          26209.6241889661 
 1475          25769.5866774532 
 1476          25269.6871675318 
 1477          24760.9794074184 
 1478          24211.1035180265 
 1479          23647.5947880856 
 1480          23080.9095546866 
 1481          22382.5551550955 
 1482          21475.7754156702 
 1483          20504.4606590818 
 1484          19500.7745717429 
 1485          18387.9958499384 
 1486          17341.0889633494 
 1487          16411.5925754779 
 1488          15483.4223839584 
 1489          14610.3907333482 
 1490          13796.4805288805 
 1491          13222.4707647978 
 1492          12624.7055030376 
 1493          12019.7078749058 
 1494          11407.8338969381 
 1495          10870.9818046272 
 1496          10383.3834001373 
 1497          9888.11057298425 
 1498          9512.29091170041 
 1499          9192.62633165577 
 1500          8890.72629990241 
 1501          8635.53278218407 
 1502          8331.36676956897 
 1503          8106.3732584549 
 1504          7921.49958196038 
 1505          7707.15088329994 
 1506          7493.15517003932 
 1507          7262.49110586889 
 1508          7025.73832711544 
 1509          6836.89656636768 
 1510          6706.10422790918 
 1511          6595.81643872095 
 1512          6484.93965229151 
 1513          6357.76598295668 
 1514          6217.57734940875 
 1515          6090.37882258711 
 1516          5976.78324000837 
 1517          5841.33385776167 
 1518          5819.58427259405 
 1519          5721.81027187656 
 1520          5517.76981336438 
 1521          5368.88248044616 
 1522          5313.35533465112 
 1523          5261.87862035681 
 1524          5154.79079081396 
 1525          4909.91119223722 
 1526          4760.24279635183 
 1527          4650.37885525236 
 1528          4574.88691974585 
 1529          4565.75414731117 
 1530          4599.07589226979 
 1531          4593.80147609843 
 1532          4591.8320342255 
 1533          4559.74705106552 
 1534          4491.83947294216 
 1535          4364.00555047947 
 1536          4317.57917574998 
 1537          4378.79390301669 
 1538          4404.62978132627 
 1539          4328.54319380158 
 1540          4242.36999925981 
 1541          4260.28708808216 
 1542          4208.99303795473 
 1543          4071.47414524991 
 1544          4003.15451764486 
 1545          4043.31648071916 
 1546          4172.36130072218 
 1547          4120.21635145303 
 1548          3932.66186032444 
 1549          3787.50107579159 
 1550          3841.50653426068 
 1551          3874.58151351324 
 1552          3848.81938078062 
 1553          3747.67233990437 
 1554          3802.85898538355 
 1555          3830.62898527404 
 1556          3819.63869610052 
 1557          3628.23945355484 
 1558          3525.2712281011 
 1559          3457.09187929868 
 1560          3477.19555863828 
 1561          3501.91195174416 
 1562          3478.37855501479 
 1563          3474.90994973054 
 1564          3476.93646556356 
 1565          3395.71431934215 
 1566          3378.40307140141 
 1567          3558.06187292465 
 1568          3611.21358437199 
 1569          3526.28630415749 
 1570          3404.66217406829 
 1571          3419.02448121039 
 1572          3503.02404237426 
 1573          3449.3001154227 
 1574          3382.10742358288 
 1575          3245.18271307304 
 1576          3191.71844511973 
 1577          3193.42907540778 
 1578          3312.88951166648 
 1579          3344.02066767598 
 1580          3349.09322898945 
 1581          3330.61996410456 
 1582          3297.21576329598 
 1583          3254.23498368661 
 1584          3272.64808192386 
 1585          3308.41719281828 
 1586          3308.43552361093 
 1587          3277.07097760595 
 1588          3259.84424218105 
 1589          3205.62308791778 
 1590          3235.08461048986 
 1591          3278.63525400548 
 1592          3294.5969105707 
 1593          3224.04089792019 
 1594          3139.48700201879 
 1595          3114.52464546847 
 1596          3183.69995391225 
 1597          3223.8803374267 
 1598          3203.77751673501 
 1599          3124.85538589039 
 1600          3067.99297509256 
 1601          3109.08911158407 
 1602          3074.5844738815 
 1603          3052.15071983513 
 1604          3047.00285043827 
 1605          3045.8221460837 
 1606          3091.11371459039 
 1607          3112.33839351694 
 1608          3093.69370984655 
 1609          3088.58887530642 
 1610          3025.96732523603 
 1611          2968.0060467302 
 1612          3003.24328436927 
 1613          3075.64429412527 
 1614          3059.16582905 
 1615          2959.57247936946 
 1616          2932.90678038749 
 1617          2909.86040837062 
 1618          2911.9106918252 
 1619          2915.33114515368 
 1620          2890.66251873335 
 1621          2917.94562254765 
 1622          2941.016115011 
 1623          2895.07827866038 
 1624          2836.90106461042 
 1625          2820.26946528724 
 1626          2758.13331235711 
 1627          2673.35229686499 
 1628          2641.41530272786 
 1629          2605.41267444139 
 1630          2645.09492981985 
 1631          2784.49277352762 
 1632          2882.52902988956 
 1633          2861.14372732256 
 1634          2752.48099969231 
 1635          2660.51981127857 
 1636          2653.60356375579 
 1637          2651.76448167639 
 1638          2595.88064936533 
 1639          2585.25064200024 
 1640          2621.95798937927 
 1641          2631.21049495222 
 1642          2646.23524866868 
 1643          2656.85484942434 
 1644          2638.97953614836 
 1645          2615.60270263628 
 1646          2553.57879292774 
 1647          2557.5344611427 
 1648          2609.61576268225 
 1649          2615.11354869408 
 1650          2621.38372459449 
 1651          2647.13079945386 
 1652          2626.26845103931 
 1653          2633.14944737615 
 1654          2606.99626134379 
 1655          2661.84790518624 
 1656          2773.76332523069 
 1657          2863.55303622288 
 1658          2785.98701976007 
 1659          2656.83594612621 
 1660          2516.89789740999 
 1661          2520.04690314056 
 1662          2514.19681838061 
 1663          2499.54013886876 
 1664          2492.69635391036 
 1665          2469.46861524863 
 1666          2499.11616114493 
 1667          2563.23070821776 
 1668          2632.97655594915 
 1669          2723.64071218238 
 1670          2742.18155191143 
 1671          2745.7070870313 
 1672          2715.64143395501 
 1673          2685.05847480744 
 1674          2669.8325194296 
 1675          2691.70191856467 
 1676          2653.32450620649 
 1677          2619.28926568699 
 1678          2589.66690244542 
 1679          2657.83081088404 
 1680          2718.11451207088 
 1681          2755.54974715872 
 1682          2748.51327205981 
 1683          2735.2028074945 
 1684          2649.42071519626 
 1685          2657.54895460729 
 1686          2655.22284382494 
 1687          2710.18203845923 
 1688          2722.45713470801 
 1689          2656.25418667631 
 1690          2616.80113584931 
 1691          2620.37033736628 
 1692          2632.00581243918 
 1693          2656.38234375845 
 1694          2644.83479503869 
 1695          2590.55691150943 
 1696          2555.77258600697 
 1697          2474.19049334069 
 1698          2455.0741960112 
 1699          2545.05020847125 
 1700          2658.64409980134 
 1701          2685.45228669917 
 1702          2655.33272525157 
 1703          2630.92265036299 
 1704          2594.60030825336 
 1705          2602.13094089745 
 1706          2601.84105538377 
 1707          2675.33166746656 
 1708          2689.96700409566 
 1709          2634.71189626059 
 1710          2580.62974526856 
 1711          2553.45812339111 
 1712          2558.16814839049 
 1713          2502.91869999379 
 1714          2435.31235390338 
 1715          2410.28361119974 
 1716          2418.30446120788 
 1717          2451.29294940575 
 1718          2456.19732752121 
 1719          2402.78543570709 
 1720          2366.80689797564 
 1721          2362.90823723002 
 1722          2346.50382849 
 1723          2327.24424187113 
 1724          2315.88555115075 
 1725          2307.87977662182 
 1726          2352.91207377172 
 1727          2264.40407886273 
 1728          2138.74392504716 
 1729          2120.89691632994 
 1730          2078.14412670882 
 1731          2029.3284088341 
 1732          1992.35473199637 
 1733          2051.84296742621 
 1734          2122.59508022953 
 1735          2132.95516130135 
 1736          2119.47319408427 
 1737          2113.52772690375 
 1738          2126.23830821274 
 1739          2051.28992217808 
 1740          2038.7941800417 
 1741          2001.07807770163 
 1742          2010.78097278531 
 1743          2029.3666861585 
 1744          2073.28191791772 
 1745          2065.23639067695 
 1746          2011.49505644138 
 1747          1940.10897572101 
 1748          1915.97095339657 
 1749          2018.78036940231 
 1750          2055.49081086207 
 1751          2005.35610041971 
 1752          1943.77164575122 
 1753          2035.67844586793 
 1754          2029.85664036289 
 1755          1943.58613346717 
 1756          1907.36931303967 
 1757          1945.28482240365 
 1758          2041.48284232147 
 1759          2063.1768990917 
 1760          2020.72524702941 
 1761          1984.1198911424 
 1762          1941.48594042347 
 1763          1913.58133413765 
 1764          1944.16902717876 
 1765          1869.18852963194 
 1766          1767.99713160919 
 1767          1727.1924660072 
 1768          1800.29756574709 
 1769          1864.06713748452 
 1770          1860.05222438164 
 1771          1767.90085131888 
 1772          1688.19207845014 
 1773          1684.44608314674 
 1774          1749.42600796935 
 1775          1771.31252883728 
 1776          1750.00863018165 
 1777          1730.98858654111 
 1778          1773.08017141342 
 1779          1786.97425933383 
 1780          1759.40837601154 
 1781          1739.0400438604 
 1782          1767.44281524732 
 1783          1820.39496874989 
 1784          1826.41399650964 
 1785          1789.80292901323 
 1786          1803.84993824299 
 1787          1767.20737641369 
 1788          1681.86104127966 
 1789          1690.38511868575 
 1790          1718.20674267789 
 1791          1782.69345055169 
 1792          1809.3279094238 
 1793          1725.01637019751 
 1794          1650.75372590975 
 1795          1627.9210331128 
 1796          1562.3256094493 
 1797          1527.60451752382 
 1798          1523.36756920286 
 1799          1538.20664392498 
 1800          1643.78285318413 
 1801          1705.73656061996 
 1802          1728.69508427693 
 1803          1762.88114065617 
 1804          1708.61232138451 
 1805          1625.89371259697 
 1806          1551.9903064027 
 1807          1444.68754057766 
 1808          1586.23214975207 
 1809          1730.15726373802 
 1810          1791.96592577196 
 1811          1742.14051372099 
 1812          1599.15493557889 
 1813          1465.13151092003 
 1814          1482.77219913341 
 1815          1555.4955721565 
 1816          1611.1140089556 
 1817          1630.46719965543 
 1818          1562.37509711334 
 1819          1475.44879629049 
 1820          1501.15904053619 
 1821          1603.95144520875 
 1822          1748.608673382 
 1823          1711.0985360382 
 1824          1555.98381114288 
 1825          1582.19208272143 
 1826          1672.25856678938 
 1827          1746.29759423078 
 1828          1659.5924792666 
 1829          1626.13140955175 
 1830          1591.6983344258 
 1831          1544.75756183479 
 1832          1576.28486781361 
 1833          1665.89459014771 
 1834          1674.90161155517 
 1835          1618.41845582413 
 1836          1583.83157197798 
 1837          1517.06033652077 
 1838          1475.48071511282 
 1839          1500.15310745181 
 1840          1521.53647220639 
 1841          1569.96056115943 
 1842          1561.90461224184 
 1843          1563.48913514254 
 1844          1566.20429573115 
 1845          1561.62609353164 
 1846          1637.63172930417 
 1847          1674.07667225919 
 1848          1651.9390241695 
 1849          1515.35186885418 
 1850          1488.62734259322 
 1851          1532.0348029037 
 1852          1584.82683680333 
 1853          1665.8572318424 
 1854          1640.67000691437 
 1855          1587.47459188503 
 1856          1582.33777249306 
 1857          1565.76021410891 
 1858          1551.64349459696 
 1859          1594.20930103856 
 1860          1567.70859524827 
 1861          1533.72105926366 
 1862          1514.09093031381 
 1863          1575.65451274316 
 1864          1563.1452763923 
 1865          1525.37728020576 
 1866          1469.79245258744 
 1867          1453.46447624571 
 1868          1459.12809041138 
 1869          1438.02128082552 
 1870          1448.58613944958 
 1871          1490.10596146586 
 1872          1526.09110502704 
 1873          1464.43358521631 
 1874          1448.64179789556 
 1875          1469.09589566209 
 1876          1461.13528600934 
 1877          1469.37917371518 
 1878          1430.59750099002 
 1879          1435.26975590081 
 1880          1488.31208998593 
 1881          1527.67845768764 
 1882          1542.78882960336 
 1883          1504.21711413673 
 1884          1438.15298494071 
 1885          1362.25249399362 
 1886          1398.20635031507 
 1887          1454.26635937294 
 1888          1505.6737762982 
 1889          1509.00332564678 
 1890          1532.86864927077 
 1891          1481.54807487774 
 1892          1423.54273931091 
 1893          1351.19399632327 
 1894          1405.37387746748 
 1895          1418.06858499666 
 1896          1412.04371154193 
 1897          1363.96326577351 
 1898          1467.48555012128 
 1899          1529.14813411874 
 1900          1566.79145025476 
 1901          1532.25626364431 
 1902          1539.93476924856 
 1903          1533.50478254187 
 1904          1506.91362058343 
 1905          1475.36516642641 
 1906          1538.61499256715 
 1907          1522.0288557527 
 1908          1467.06802901021 
 1909          1362.96002381405 
 1910          1316.27599725114 
 1911          1230.80335016505 
 1912          1214.01957439018 
 1913          1271.01208173736 
 1914          1393.53294409411 
 1915          1384.99432768029 
 1916          1358.56403453634 
 1917          1335.85339842387 
 1918          1333.50771240781 
 1919          1331.77498271359 
 1920          1344.32497715374 
 1921          1425.53063314852 
 1922          1430.30923298308 
 1923          1446.63098921394 
 1924          1398.45947003736 
 1925          1387.85282807891 
 1926          1383.36390092448 
 1927          1385.30391687359 
 1928          1390.97039970273 
 1929          1469.56801743509 
 1930          1495.47359651331 
 1931          1519.76164603823 
 1932          1443.49494512582 
 1933          1283.82198930403 
 1934          1325.33077141535 
 1935          1364.28574443637 
 1936          1449.67856539209 
 1937          1409.11784724372 
 1938          1410.01020589288 
 1939          1385.77160802613 
 1940          1349.34676364006 
 1941          1358.8013470112 
 1942          1354.44270177313 
 1943          1417.38373472467 
 1944          1300.6403560086 
 1945          1171.04693161815 
 1946          1242.20091160248 
 1947          1300.24923994716 
 1948          1321.30566788042 
 1949          1308.3186332743 
 1950          1279.09753002594 
 1951          1317.36745552529 
 1952          1328.45481928436 
 1953          1338.38679451221 
 1954          1329.87611661963 
 1955          1343.34970331631 
 1956          1295.81981227727 
 1957          1278.09294583875 
 1958          1270.48063517184 
 1959          1309.32420603477 
 1960          1284.10911770448 
 1961          1246.55138243962 
 1962          1233.38073762363 
 1963          1184.43352886691 
 1964          1136.53495636361 
 1965          1142.19769694024 
 1966          1330.19381822057 
 1967          1450.33339200273 
 1968          1376.86603986597 
 1969          1216.40186204604 
 1970          1242.17844681685 
 1971          1299.04802056616 
 1972          1325.79428583352 
 1973          1336.62560568532 
 1974          1391.56728205621 
 1975          1338.59512142812 
 1976          1224.20694990108 
 1977          1204.24965545912 
 1978          1225.17026210451 
 1979          1264.03235560424 
 1980          1296.28308244719 
 1981          1276.7982676025 
 1982          1239.19594471893 
 1983          1194.91353927025 
 1984          1180.12478507924 
 1985          1189.06190610924 
 1986          1233.08264777626 
 1987          1253.29476441258 
 1988          1252.34090620125 
 1989          1186.17528786359 
 1990          1094.3392818203 
 1991          1058.90714889927 
 1992          1006.06265206164 
 1993          973.110885187392 
 1994          983.284179568198 
 1995          974.755405017876 
 1996          960.077189860579 
 1997          952.363661679628 
 1998          1003.47871083006 
 1999          1043.10616059687 
 2000          1108.43271719693 
 2001          1082.00549039415 
 2002          1100.68276052924 
 2003          1095.4292244857 
 2004          1102.8793453782 
 2005          1159.2386479295 
 2006          1212.74627381876 
 2007          1233.97768840392 
 2008          1200.6789518708 
 2009          1162.17586617836 
 2010          1140.51221276577 
 2011          1101.50575118652 
 2012          1076.3411316788 
 2013          1045.00338281869 
 2014          1010.04639062387 
 2015          1020.45518429233 
 2016          1112.49969912341 
 2017          1093.43642874468 
 2018          1071.17858637315 
 2019          1000.07576730009 
 2020          990.761318635787 
 2021          936.86470634832 
 2022          928.648261523591 
 2023          983.26641564869 
 2024          1024.93341095681 
 2025          1090.2490469234 
 2026          1137.12803723224 
 2027          1165.97042966379 
 2028          1109.07545595344 
 2029          1001.18731768918 
 2030          972.990045394316 
 2031          1070.32306419336 
 2032          1114.17454574303 
 2033          965.141353344209 
 2034          980.359448015406 
 2035          1082.25905107211 
 2036          1116.51497716668 
 2037          1029.46841571564 
 2038          1048.21296172116 
 2039          1104.13480106112 
 2040          1115.817282166 
 2041          1038.05924877562 
 2042          1007.69697918037 
 2043          1072.4612365669 
 2044          1113.15071036772 
 2045          1107.21113580246 
 2046          1014.27039825198 
 2047          972.265467264591 
 2048          1076.35048245981 
 2049          1049.38694834603 
 2050          943.3926287021 
 2051          868.940671824667 
 2052          870.653219398232 
 2053          846.079710209312 
 2054          850.130551797496 
 2055          962.931354509461 
 2056          994.286127613183 
 2057          1024.15596007659 
 2058          1011.34404146527 
 2059          1002.19714727856 
 2060          999.659328490073 
 2061          1049.55327126013 
 2062          1064.43677401482 
 2063          1075.0611371725 
 2064          991.408753284565 
 2065          908.527313401466 
 2066          975.665564744748 
 2067          1027.51821980856 
 2068          951.074858786432 
 2069          821.016037666992 
 2070          882.510458373753 
 2071          958.367034335088 
 2072          987.61925115599 
 2073          911.201299643149 
 2074          870.266689633605 
 2075          887.958937456967 
 2076          878.269545840343 
 2077          920.659946771389 
 2078          973.628854913535 
 2079          943.811096687981 
 2080          940.135766317098 
 2081          932.715260098098 
 2082          933.677628822118 
 2083          945.583853111185 
 2084          933.41083307664 
 2085          882.409399652774 
 2086          857.731972969158 
 2087          894.99656193828 
 2088          852.127582086573 
 2089          858.379024770813 
 2090          885.995130357132 
 2091          996.416906850826 
 2092          1044.91244009336 
 2093          994.007748470051 
 2094          935.864167227196 
 2095          891.454489487056 
 2096          921.190063496802 
 2097          933.796078496431 
 2098          836.660310848193 
 2099          813.572653558874 
 2100          763.437530367105 
 2101          774.746681370926 
 2102          833.564481093225 
 2103          957.451402490686 
 2104          987.03251106472 
 2105          978.376221042559 
 2106          966.186154328852 
 2107          881.501351275937 
 2108          878.63227344872 
 2109          826.656024644508 
 2110          812.256717275365 
 2111          769.091075434473 
 2112          768.049340615933 
 2113          741.984498537313 
 2114          861.781113399893 
 2115          936.348529358142 
 2116          997.003137059602 
 2117          919.260242291846 
 2118          853.00177304115 
 2119          813.227197218947 
 2120          927.407463796974 
 2121          897.995516855494 
 2122          822.390168581133 
 2123          790.929917313972 
 2124          831.857330692357 
 2125          765.633181163157 
 2126          708.147044692265 
 2127          763.487474716492 
 2128          938.782680719981 
 2129          917.537398931473 
 2130          860.36865506207 
 2131          801.688798959369 
 2132          714.883642601878 
 2133          679.160768740732 
 2134          744.174913853187 
 2135          798.769177897584 
 2136          865.492319895814 
 2137          797.862300979701 
 2138          815.752610936008 
 2139          813.334387521523 
 2140          773.751762366355 
 2141          739.568905392229 
 2142          786.357533655742 
 2143          812.865808625893 
 2144          866.116664487247 
 2145          864.403939026854 
 2146          833.882923881706 
 2147          814.049103674003 
 2148          713.244622396596 
 2149          712.597491784303 
 2150          838.251156474374 
 2151          877.807428365977 
 2152          878.526893736334 
 2153          827.389552483855 
 2154          776.126501375445 
 2155          747.965808206793 
 2156          792.182398619037 
 2157          781.831095323576 
 2158          839.631537406612 
 2159          839.042561623734 
 2160          840.240796822567 
 2161          851.449976340234 
 2162          910.178292287628 
 2163          887.24396376952 
 2164          763.139021865023 
 2165          810.563160761145 
 2166          876.089950172224 
 2167          936.202467271758 
 2168          873.269301183303 
 2169          806.362310859636 
 2170          904.60229886422 
 2171          981.69544031811 
 2172          961.148262123502 
 2173          937.893690120748 
 2174          884.588268234283 
 2175          913.553145237257 
 2176          944.702617404132 
 2177          982.020417608853 
 2178          894.763941792399 
 2179          944.242064036212 
 2180          990.686712893335 
 2181          869.432846644763 
 2182          769.221816763428 
 2183          751.740038930714 
 2184          911.818126783429 
 2185          936.922381990288 
 2186          968.43056782608 
 2187          1031.83419010204 
 2188          1031.66356658838 
 2189          960.893805385192 
 2190          887.245059117824 
 2191          850.711863729657 
 2192          853.940362221861 
 2193          824.149179626571 
 2194          874.691438533303 
 2195          950.96487057624 
 2196          946.914764967879 
 2197          801.253002893708 
 2198          770.279415665689 
 2199          811.437639638341 
 2200          779.352107075368 
 2201          762.498050239154 
 2202          750.493126197649 
 2203          784.299884767742 
 2204          919.550940859718 
 2205          933.416404997045 
 2206          829.379877487794 
 2207          770.750401842808 
 2208          810.738634864038 
 2209          774.598164882594 
 2210          730.603663833005 
 2211          737.840082695002 
 2212          845.102296877047 
 2213          831.103584711144 
 2214          788.126265079741 
 2215          859.024820064255 
 2216          848.956942190215 
 2217          794.940731279794 
 2218          731.321888793593 
 2219          720.552668392456 
 2220          841.07409068013 
 2221          870.712606400998 
 2222          736.36697852157 
 2223          715.845939435877 
 2224          795.377891046055 
 2225          796.069459335498 
 2226          700.726518987954 
 2227          735.385143461791 
 2228          721.796399239331 
 2229          701.886075690742 
 2230          708.786288193528 
 2231          694.021794914566 
 2232          677.839497663424 
 2233          756.902572595649 
 2234          768.300832616732 
 2235          680.199543759327 
 2236          637.20666665713 
 2237          771.259512763737 
 2238          804.452828835907 
 2239          807.610835013201 
 2240          770.280214771198 
 2241          711.688095649263 
 2242          781.039622285721 
 2243          874.221387188089 
 2244          749.09393505488 
 2245          607.353016563616 
 2246          626.611123875141 
 2247          707.775360442453 
 2248          823.568325654161 
 2249          814.536830386953 
 2250          688.620130157382 
 2251          668.573046183918 
 2252          696.495828839588 
 2253          757.880074405237 
 2254          778.265370997111 
 2255          838.758793142283 
 2256          795.803101382993 
 2257          746.147274489299 
 2258          699.731715410658 
 2259          643.39756773675 
 2260          558.424665380806 
 2261          676.449800255876 
 2262          724.184782516021 
 2263          691.217732942268 
 2264          627.982568509642 
 2265          647.089539913106 
 2266          751.721269077987 
 2267          719.569383693544 
 2268          744.40221302838 
 2269          717.24841381698 
 2270          669.021822771744 
 2271          689.836703324223 
 2272          687.952834502079 
 2273          667.185404535212 
 2274          674.647105271644 
 2275          587.669939968171 
 2276          568.204795557466 
 2277          719.309836609141 
 2278          783.823530035655 
 2279          676.056443274636 
 2280          645.887292611077 
 2281          653.289716007233 
 2282          714.978252531072 
 2283          635.084630912172 
 2284          575.590397498712 
 2285          632.480158994164 
 2286          619.459914315501 
 2287          628.357642280434 
 2288          614.271437986832 
 2289          617.911204730097 
 2290          569.987874878115 
 2291          508.915359702449 
 2292          467.852553643213 
 2293          522.009459309089 
 2294          549.674779582875 
 2295          636.538619004024 
 2296          664.729772189534 
 2297          594.381629903293 
 2298          640.712107776753 
 2299          643.104485583021 
 2300          605.681321505023 
 2301          500.449365882753 
 2302          610.051607446593 
 2303          665.352947489134 
 2304          592.993181249875 
 2305          469.888578879577 
 2306          383.788666741575 
 2307          395.485228695403 
 2308          389.875233186746 
 2309          433.967943925038 
 2310          483.944396023407 
 2311          440.399304424909 
 2312          414.738400503225 
 2313          423.681984126414 
 2314          591.872223597313 
 2315          619.801140417371 
 2316          607.497283788379 
 2317          583.49536596548 
 2318          493.736399728717 
 2319          501.738603286633 
 2320          608.414811818533 
 2321          617.126298967912 
 2322          563.575813995823 
 2323          573.517124900946 
 2324          531.999885039025 
 2325          479.276823285277 
 2326          448.241532336699 
 2327          443.723651114751 
 2328          432.923101304922 
 2329          419.866742033803 
 2330          489.150572417231 
 2331          506.319306796057 
 2332          336.287968173361 
 2333          329.790357057305 
 2334          413.384409620704 
 2335          459.352259136415 
 2336          440.39238206992 
 2337          443.532450614368 
 2338          443.975458189462 
 2339          356.508526284153 
##END=
