##TITLE=1-heptanol 1.jdx
##JCAMP-DX=5.00
##DATE=7/14/2010 1:19:31 PM
##DATATYPE=Raman Spectrum
##DATA CLASS=XYDATA
##ORIGIN=ENWAVE
##OWNER=ENWAVE
##NPOINTS=2090
##FIRSTX= 1
##LASTX= 2339
##MAXX= 2339
##MINX= 1
##XFACTOR=1.0000000000
##YFACTOR=1.0000000000
##FIRSTY= 260.861226427568
##DELTAX=1.000000000000
##XUNITS=1/CM
##YUNITS=ARBITRARY UNITS
##XYDATA=(X++(Y..Y))
 1             260.861226427568 
 251           260.861226427568 
 252           1767.44620873881 
 253           4313.31319008743 
 254           6703.08529811035 
 255           8984.37023167973 
 256           10615.4708098354 
 257           10932.9448563057 
 258           11141.5878404929 
 259           11695.0758874238 
 260           12281.2641802077 
 261           12781.4187454208 
 262           13218.2703600289 
 263           13677.1381684667 
 264           14216.6404021345 
 265           14785.3840308284 
 266           15347.41917666 
 267           16000.904109243 
 268           16757.6310833472 
 269           17659.6689256124 
 270           18831.5978854276 
 271           20081.9498067322 
 272           21270.9309212911 
 273           22489.8884644086 
 274           23677.122088468 
 275           24784.1457765608 
 276           25851.2901219325 
 277           26927.6291513523 
 278           27987.1023404014 
 279           28937.8935592446 
 280           29727.2149722129 
 281           30237.7516557992 
 282           30384.6403103593 
 283           30360.3026270417 
 284           30215.7742436306 
 285           29954.1112392995 
 286           29761.2161028922 
 287           29391.0385995627 
 288           28621.0728053079 
 289           27805.3920549406 
 290           27099.7333847697 
 291           26481.5018044527 
 292           25860.6412497223 
 293           25201.5247594115 
 294           24513.0966604245 
 295           23819.5415931345 
 296           23086.3031803298 
 297           22349.0744732767 
 298           21702.9139092518 
 299           21084.8371158292 
 300           20438.8338244962 
 301           19767.4998799633 
 302           19113.5349670214 
 303           18420.2390516395 
 304           17594.2207921737 
 305           16660.4502161161 
 306           15800.2022852579 
 307           15107.3186385345 
 308           14380.5767483846 
 309           13673.9406940822 
 310           13072.9723445617 
 311           12509.251555243 
 312           11954.8493467406 
 313           11380.9245630732 
 314           10779.7881001708 
 315           10339.3856222379 
 316           10059.0243077382 
 317           9766.18406829208 
 318           9502.94955393801 
 319           9265.60641028523 
 320           8980.15785821401 
 321           8597.28178018088 
 322           8288.42218164723 
 323           8175.26733056539 
 324           8052.65735349856 
 325           7893.72559098177 
 326           7736.9183112957 
 327           7574.54001737246 
 328           7434.14886709773 
 329           7332.59857025224 
 330           7262.45620818094 
 331           7230.47626958351 
 332           7196.51348930553 
 333           7111.74760430208 
 334           7032.05333928692 
 335           6941.424799482 
 336           6848.01175633684 
 337           6919.88718473847 
 338           7037.19010197179 
 339           7119.60965303425 
 340           7365.04464689236 
 341           7638.71094959419 
 342           7858.42888347954 
 343           8125.69637826729 
 344           8305.03687970677 
 345           8376.18895585732 
 346           8451.40856658892 
 347           8518.35266663153 
 348           8642.19741689086 
 349           8869.49308560448 
 350           9058.33430410408 
 351           9225.53062021303 
 352           9396.17987520592 
 353           9474.35309988289 
 354           9511.49191703682 
 355           9573.81339615671 
 356           9665.54537079076 
 357           9762.07951620994 
 358           9841.84153509876 
 359           9909.99835328554 
 360           10017.7197411736 
 361           10142.8865063133 
 362           10243.4560880193 
 363           10345.5242932106 
 364           10469.8089119139 
 365           10577.8431112252 
 366           10584.7053277793 
 367           10564.3383847653 
 368           10569.9401911359 
 369           10565.175456682 
 370           10479.0220135741 
 371           10269.83668814 
 372           9934.00998473651 
 373           9506.6502968499 
 374           9148.92287799055 
 375           8939.10688125408 
 376           8729.85116385686 
 377           8514.47144985657 
 378           8297.66699218753 
 379           8052.59435248961 
 380           7860.88602921423 
 381           7786.38450188809 
 382           7823.63655057991 
 383           7888.76641892733 
 384           7927.16474760539 
 385           7960.16856025359 
 386           8076.68441971729 
 387           8209.77641309156 
 388           8322.25667207884 
 389           8471.15666246979 
 390           8612.42764317486 
 391           8710.03096755139 
 392           8807.31327667333 
 393           9054.4438158268 
 394           9372.377254686 
 395           9596.46429900926 
 396           9685.51789168396 
 397           9673.82772669782 
 398           9607.95410325764 
 399           9512.06532850127 
 400           9380.29661435085 
 401           9169.3941878456 
 402           8816.09020878742 
 403           8284.34666638001 
 404           7672.04703964281 
 405           7113.63983459576 
 406           6667.70897045343 
 407           6315.67439138889 
 408           6053.43742464129 
 409           5887.22386395141 
 410           5699.51275679052 
 411           5464.03015706989 
 412           5240.14067962999 
 413           5065.21374156154 
 414           4919.22025545319 
 415           4805.65134637311 
 416           4776.55208973008 
 417           4747.10053367129 
 418           4678.60499357734 
 419           4612.64205698154 
 420           4560.6919793084 
 421           4565.19779466316 
 422           4637.13604780426 
 423           4697.61409014395 
 424           4791.30145628679 
 425           4925.2656146861 
 426           5023.22907606036 
 427           5143.02541729767 
 428           5303.75794775582 
 429           5471.05247024247 
 430           5629.34407396284 
 431           5770.49418587073 
 432           5923.39473666338 
 433           6151.50436801715 
 434           6422.67533183204 
 435           6671.03152030238 
 436           6853.56033059232 
 437           6999.37387591242 
 438           7119.59628746499 
 439           7251.03293811236 
 440           7484.22568519536 
 441           7733.17810108106 
 442           7961.03427141987 
 443           8223.08760341441 
 444           8416.49945995236 
 445           8474.12041942499 
 446           8451.9646548269 
 447           8515.25247977299 
 448           8552.75792471007 
 449           8524.8600412428 
 450           8555.49264727976 
 451           8388.27340838396 
 452           8086.15877402595 
 453           7894.69699334903 
 454           7691.32013103531 
 455           7435.64543188406 
 456           7176.54525445268 
 457           6962.17604615447 
 458           6709.68727684346 
 459           6444.09347938297 
 460           6256.89631639425 
 461           6082.76920412959 
 462           5874.28995191726 
 463           5650.50145117626 
 464           5465.47730444223 
 465           5232.90831971189 
 466           4988.19455711527 
 467           4859.55023942708 
 468           4808.99100066603 
 469           4773.82357021948 
 470           4700.88145919817 
 471           4568.78176011428 
 472           4455.16494871637 
 473           4365.59792772725 
 474           4264.68721296291 
 475           4254.717937045 
 476           4301.15523218116 
 477           4336.43711725222 
 478           4377.07415339343 
 479           4413.80026104145 
 480           4463.184999629 
 481           4536.40529869359 
 482           4556.24364202737 
 483           4593.41720471551 
 484           4696.10640160343 
 485           4770.43570167247 
 486           4847.92632355899 
 487           4918.00954951941 
 488           4938.09318910191 
 489           4961.8324039501 
 490           4948.73470198219 
 491           4892.08359943718 
 492           4879.54018787752 
 493           4853.65082196988 
 494           4811.43837325108 
 495           4790.33715706574 
 496           4741.77306529235 
 497           4664.52428766831 
 498           4609.62193271962 
 499           4635.92074136539 
 500           4709.02011224794 
 501           4758.61438588917 
 502           4737.5541830542 
 503           4673.18771508072 
 504           4643.23971028629 
 505           4669.65705018932 
 506           4709.93849802614 
 507           4780.70362735825 
 508           4858.85466495294 
 509           4919.1892694229 
 510           4985.06346623046 
 511           5035.63960653968 
 512           5070.3818192461 
 513           5105.32271460921 
 514           5106.68108466872 
 515           5095.00050518101 
 516           5091.82898306774 
 517           5072.52515261274 
 518           5028.21599877515 
 519           4985.28984823085 
 520           4967.40630849205 
 521           4941.16787655589 
 522           4895.89327091623 
 523           4870.49622740517 
 524           4911.53055499091 
 525           4949.39245963946 
 526           4983.98294230391 
 527           5023.77649091103 
 528           5005.05614308727 
 529           4982.00952731081 
 530           4945.12871621255 
 531           4841.28580221605 
 532           4753.96358097887 
 533           4655.5176968662 
 534           4500.12027170439 
 535           4311.12756515571 
 536           4116.80422102561 
 537           3938.18498945233 
 538           3785.89650141643 
 539           3659.53163833629 
 540           3551.60332151924 
 541           3430.57175547694 
 542           3286.38702754891 
 543           3215.76113314417 
 544           3176.65431873451 
 545           3130.82974793974 
 546           3134.56146913932 
 547           3122.87556929494 
 548           3105.56730946837 
 549           3111.03593802341 
 550           3059.82096403592 
 551           2962.08184210744 
 552           2850.77953034858 
 553           2741.32825944899 
 554           2645.10195710058 
 555           2569.19197460458 
 556           2501.68376886351 
 557           2429.28467529171 
 558           2416.40919083538 
 559           2435.88502228937 
 560           2440.14687820818 
 561           2469.37657943004 
 562           2462.8869828188 
 563           2403.72856503774 
 564           2338.08872728383 
 565           2276.81175402284 
 566           2221.78384005438 
 567           2188.70804716247 
 568           2197.43278118305 
 569           2218.50434617662 
 570           2213.16465646247 
 571           2179.34962340687 
 572           2157.24164639838 
 573           2121.57750382123 
 574           2051.62193453476 
 575           1980.0733507068 
 576           1988.42374983515 
 577           2033.94875557273 
 578           2048.22517660274 
 579           2012.16253529739 
 580           1967.1036821374 
 581           1917.86574012194 
 582           1904.72994190964 
 583           1974.29006882162 
 584           1958.49330556741 
 585           1901.98146889256 
 586           1927.54475917527 
 587           2009.04078300831 
 588           2061.52860145365 
 589           2062.42209127367 
 590           2036.69780657298 
 591           1989.95105369756 
 592           1937.91638645582 
 593           1892.58935626265 
 594           1877.27446589551 
 595           1941.14684486647 
 596           1987.65251963913 
 597           1978.55648601343 
 598           1983.65482166929 
 599           1970.86900778703 
 600           1936.80429645052 
 601           1917.79444452084 
 602           1954.02458529346 
 603           2031.45425785687 
 604           2082.74839378306 
 605           2090.58696378971 
 606           2117.57529844907 
 607           2048.50811752171 
 608           1965.29119272757 
 609           1991.2298433706 
 610           2003.86114693928 
 611           2079.03929233307 
 612           2143.54759730724 
 613           2064.06071310156 
 614           1994.44422391615 
 615           1927.83924546991 
 616           1875.62018135871 
 617           1900.38713188718 
 618           1938.18638070646 
 619           1934.85555966296 
 620           1905.61856583182 
 621           1900.09634798474 
 622           1886.61025312208 
 623           1871.69799190804 
 624           1860.16708979613 
 625           1830.00975126761 
 626           1803.28509036944 
 627           1822.61109122385 
 628           1900.35620134535 
 629           1996.92920701419 
 630           2074.86141565368 
 631           2094.827248023 
 632           2058.39806063846 
 633           2018.05129756638 
 634           1955.18316739626 
 635           1890.97565182225 
 636           1865.8565528161 
 637           1870.89668280198 
 638           1863.89692718758 
 639           1833.21023870268 
 640           1812.21853422826 
 641           1847.59410907285 
 642           1913.14218128354 
 643           1979.5544479156 
 644           2026.16789482026 
 645           2021.41024454932 
 646           1973.1031345014 
 647           1934.73293493398 
 648           1947.46120905082 
 649           1967.56970073023 
 650           1948.52922099499 
 651           1914.40248244937 
 652           1912.80149520608 
 653           1914.8282619668 
 654           1934.40646977601 
 655           1949.95216590964 
 656           1922.90178259232 
 657           1890.99227026116 
 658           1857.08131790695 
 659           1849.34739107265 
 660           1896.36933362734 
 661           1939.28044217171 
 662           1978.76571263967 
 663           1986.48982431052 
 664           1944.28040123395 
 665           1970.57166328992 
 666           2046.64908315565 
 667           2130.86848020493 
 668           2186.72567009676 
 669           2119.38268397503 
 670           1990.90065437976 
 671           1928.44080107308 
 672           1976.16548992078 
 673           2012.72866914276 
 674           2050.64988066396 
 675           2050.38112540822 
 676           1966.7959349247 
 677           1958.7105948525 
 678           2002.59934808514 
 679           2046.69273924778 
 680           2073.73954484911 
 681           2053.20615507845 
 682           2059.35856299313 
 683           2073.84416241638 
 684           2037.75417004902 
 685           2032.15982504947 
 686           2033.53479045779 
 687           2012.47395561735 
 688           2001.1483906787 
 689           2062.9680150182 
 690           2124.95889389348 
 691           2165.34688995064 
 692           2198.11868901386 
 693           2182.61631731008 
 694           2171.61201446173 
 695           2182.67402326316 
 696           2209.78499385764 
 697           2271.61941990266 
 698           2319.76006130912 
 699           2353.54895542096 
 700           2375.97336677039 
 701           2358.88598908286 
 702           2388.1739373389 
 703           2421.17609036063 
 704           2437.2190321531 
 705           2523.24851597125 
 706           2586.55610407319 
 707           2697.6943647681 
 708           2856.85245167189 
 709           2920.46191348013 
 710           2986.75237783808 
 711           3045.98892733376 
 712           3097.56423859491 
 713           3189.45401705024 
 714           3260.42507281335 
 715           3328.29572339103 
 716           3398.00395916023 
 717           3478.65916350551 
 718           3659.21024589945 
 719           3760.48215305379 
 720           3776.56593794469 
 721           3829.52331421979 
 722           3854.16883256644 
 723           3872.51339400007 
 724           3890.44627515138 
 725           3897.63339605122 
 726           3912.88087846779 
 727           3938.3567456934 
 728           3990.4639683547 
 729           4043.61155448585 
 730           4053.0845797172 
 731           4136.16731404754 
 732           4256.69658088055 
 733           4376.46785175428 
 734           4542.95783009172 
 735           4728.38862744696 
 736           4862.16237780601 
 737           4934.00061570102 
 738           4999.70937058882 
 739           5080.88191381777 
 740           5073.99613575 
 741           5011.26301273103 
 742           4988.81428378948 
 743           4970.5502714212 
 744           4931.356228355 
 745           4869.77908144704 
 746           4799.55257667415 
 747           4731.41421982391 
 748           4647.73108930462 
 749           4542.20487658756 
 750           4443.88333046049 
 751           4406.98895358193 
 752           4454.63336437468 
 753           4492.9481969191 
 754           4514.95900887832 
 755           4549.88969443858 
 756           4502.93266416297 
 757           4455.80648221773 
 758           4493.14370718598 
 759           4590.77858463846 
 760           4658.13863063856 
 761           4735.80665811677 
 762           4822.68711430964 
 763           4933.43395560776 
 764           5117.4828553765 
 765           5338.42941684826 
 766           5528.45697501379 
 767           5690.99507280602 
 768           5890.87868508405 
 769           6161.4150356076 
 770           6468.59947988396 
 771           6716.86955778569 
 772           6877.62737115354 
 773           7040.09087843414 
 774           7212.25037275533 
 775           7349.64441743993 
 776           7418.65461322099 
 777           7473.68532357281 
 778           7643.40988884751 
 779           7713.16111275283 
 780           7720.1507094327 
 781           7749.46270335844 
 782           7554.90259821561 
 783           7359.4467925598 
 784           7275.15478087783 
 785           7294.04031192613 
 786           7399.41230296452 
 787           7486.3982533073 
 788           7553.08089296805 
 789           7601.08123224052 
 790           7625.29128021528 
 791           7660.3974176834 
 792           7630.40918773109 
 793           7611.26198495876 
 794           7576.93311523025 
 795           7324.69380160757 
 796           7005.07767341443 
 797           6670.07556742494 
 798           6368.43839406602 
 799           6126.54584990389 
 800           5850.19553941796 
 801           5725.57779709883 
 802           5674.88863765554 
 803           5592.02453830004 
 804           5584.56679935048 
 805           5563.02460933624 
 806           5629.03735729632 
 807           5817.86718257518 
 808           6060.11004799789 
 809           6374.25749951331 
 810           6652.43899078681 
 811           6981.1268047296 
 812           7441.27810562054 
 813           7948.82371702692 
 814           8536.75337882226 
 815           9120.49279428048 
 816           9759.78463530036 
 817           10579.0222434032 
 818           11479.601944311 
 819           12376.0401202776 
 820           13285.659100148 
 821           14161.487830071 
 822           14924.5757614122 
 823           15732.1862924226 
 824           16418.7530565082 
 825           16986.2676947763 
 826           17548.0621269107 
 827           18028.2996945748 
 828           18474.7111285039 
 829           19001.1545953758 
 830           19590.8085206516 
 831           20170.2435984101 
 832           20831.0213172676 
 833           21424.1920564248 
 834           21870.9537917142 
 835           22129.2972609729 
 836           22112.4417536338 
 837           21895.3575065125 
 838           21696.6285623146 
 839           21441.757800905 
 840           20991.1509104536 
 841           20496.6455837825 
 842           19747.003930205 
 843           18884.6929474904 
 844           18071.9669293536 
 845           17245.1118569417 
 846           16372.0107934432 
 847           15430.8605782115 
 848           14627.3174462252 
 849           13990.171840945 
 850           13344.1626530066 
 851           13042.4312321209 
 852           12823.1992267899 
 853           12691.0031746257 
 854           12869.6717928067 
 855           13179.5076578456 
 856           13356.6690264254 
 857           13518.668187363 
 858           13780.5846466965 
 859           14130.5836333395 
 860           14639.0192476173 
 861           15253.5923553354 
 862           15883.9767246527 
 863           16521.7836642762 
 864           17212.8135494171 
 865           17909.8106096675 
 866           18548.8098078769 
 867           19133.4836161409 
 868           19462.0565899554 
 869           19336.7832044329 
 870           19263.1578928354 
 871           18920.4271303856 
 872           18361.004303013 
 873           17872.6380683129 
 874           17351.9851444997 
 875           16875.5204850734 
 876           16531.0176277459 
 877           16377.5633251177 
 878           16312.5305954526 
 879           16210.2667585594 
 880           16573.1541309429 
 881           17242.7709673282 
 882           18070.0212022436 
 883           19028.825639124 
 884           19808.3897135146 
 885           20490.7861283051 
 886           21044.0636183356 
 887           21544.1827190777 
 888           22030.7086979498 
 889           22198.3512280039 
 890           22233.1143023802 
 891           22357.222715828 
 892           22610.2520959568 
 893           22842.0511487835 
 894           22865.6877312544 
 895           22789.7068700979 
 896           22497.668558598 
 897           21826.8667520011 
 898           20926.8354906533 
 899           20094.5672435424 
 900           18766.9090479529 
 901           17052.7920034947 
 902           15479.664024373 
 903           14273.3769760072 
 904           13290.0898467657 
 905           12461.7163392276 
 906           11778.4574722692 
 907           11271.4251017882 
 908           10876.3776747518 
 909           10430.9232889905 
 910           10384.5417449309 
 911           10583.8475753605 
 912           10780.3635723063 
 913           10993.4235585359 
 914           11110.050451728 
 915           11264.3494394337 
 916           11390.5466778129 
 917           11356.2598141336 
 918           11132.7324218755 
 919           10762.839455393 
 920           10399.2158727594 
 921           10013.9564798605 
 922           9715.30513811705 
 923           9602.73918788614 
 924           9447.95562432432 
 925           9410.7490308267 
 926           9422.27484267575 
 927           9399.72915715367 
 928           9390.17472055858 
 929           9420.62291670663 
 930           9460.69952914219 
 931           9476.5901396619 
 932           9467.26986617454 
 933           9366.15646489388 
 934           9083.58342094735 
 935           8835.13040846832 
 936           8676.58002048097 
 937           8500.31817239027 
 938           8251.8104213478 
 939           7999.00034458095 
 940           7748.71876603293 
 941           7548.60197080726 
 942           7376.64130837561 
 943           7192.94495637425 
 944           6999.97405687205 
 945           6809.31941308396 
 946           6706.98673259603 
 947           6661.19082615657 
 948           6608.18444129738 
 949           6552.00258808073 
 950           6512.72328927635 
 951           6450.44809568554 
 952           6433.51279034185 
 953           6416.66224332226 
 954           6369.31042855276 
 955           6427.29471289674 
 956           6460.90009718763 
 957           6458.0937973536 
 958           6529.38444478345 
 959           6694.82993465926 
 960           6861.38102570802 
 961           7059.37308515137 
 962           7250.33342818841 
 963           7361.17645898012 
 964           7443.77676715956 
 965           7510.80312255808 
 966           7357.32816404479 
 967           7196.56001761781 
 968           7010.77382991289 
 969           6780.38876446992 
 970           6519.40273633159 
 971           6197.00567622892 
 972           6031.12841668535 
 973           5878.91557564913 
 974           5751.36215392823 
 975           5700.81087225098 
 976           5633.43294162043 
 977           5565.98456794793 
 978           5530.4055600011 
 979           5477.47437623858 
 980           5441.29622253234 
 981           5470.42119800746 
 982           5489.79723514239 
 983           5535.37735724855 
 984           5598.62585570807 
 985           5736.21263229541 
 986           5945.10835795952 
 987           6124.23880180703 
 988           6275.13081858681 
 989           6366.9306295524 
 990           6512.37276200306 
 991           6713.63542134645 
 992           6910.16827982408 
 993           7158.09388531506 
 994           7371.68480019673 
 995           7602.54840881374 
 996           7897.97779419879 
 997           8220.91152036096 
 998           8545.40591603046 
 999           8923.57090361429 
 1000          9275.9281343479 
 1001          9620.38624760244 
 1002          10014.529656058 
 1003          10428.2652748522 
 1004          10843.6929920143 
 1005          11447.7341192556 
 1006          12104.1649829332 
 1007          12738.0904947958 
 1008          13262.1259127793 
 1009          13665.2389275488 
 1010          14098.2342806893 
 1011          14295.6817084435 
 1012          14283.5939289556 
 1013          14198.7056466617 
 1014          14074.8846718332 
 1015          13892.8252076544 
 1016          13712.3407966849 
 1017          13588.0589537851 
 1018          13487.4494698745 
 1019          13440.8161190449 
 1020          13489.9811394248 
 1021          13633.0227454181 
 1022          13958.503704926 
 1023          14489.090302074 
 1024          14999.4634144513 
 1025          15695.2017060424 
 1026          16722.783422377 
 1027          17685.8616386647 
 1028          18742.7618208995 
 1029          19876.6278083857 
 1030          20986.2175636827 
 1031          21951.5277247911 
 1032          22718.1956617817 
 1033          23326.1485108213 
 1034          23693.3607878023 
 1035          23712.1770030013 
 1036          23741.7584829442 
 1037          23489.3838612624 
 1038          22435.5473903171 
 1039          21175.2731631039 
 1040          20127.6499737565 
 1041          19472.5052059168 
 1042          18881.35523671 
 1043          18421.7368619802 
 1044          18287.6608398455 
 1045          18134.1411364433 
 1046          18625.7856749741 
 1047          19226.7577688817 
 1048          19871.1557489063 
 1049          20668.7901299496 
 1050          21383.612958339 
 1051          21998.7197362743 
 1052          22616.713518144 
 1053          23225.0957936121 
 1054          23917.6388577736 
 1055          24446.1660934962 
 1056          24574.7091631359 
 1057          24662.5252437957 
 1058          24674.4870390482 
 1059          24713.5928833531 
 1060          24584.6750181144 
 1061          24215.2516510314 
 1062          23874.69686657 
 1063          23698.8264300104 
 1064          23462.7614629056 
 1065          23201.7650438499 
 1066          22946.3327397415 
 1067          22747.5250821682 
 1068          22762.2549880716 
 1069          23015.3060816378 
 1070          23233.9406648304 
 1071          23699.9474626469 
 1072          24231.7216559794 
 1073          24669.2535513053 
 1074          24973.0798747096 
 1075          25000.5607691639 
 1076          24830.9635151334 
 1077          24636.2209356875 
 1078          24213.6995535764 
 1079          23665.0641779582 
 1080          23102.44950679 
 1081          22327.8808682786 
 1082          21340.9447305915 
 1083          20379.5471339584 
 1084          19331.339388283 
 1085          18181.3057060672 
 1086          17014.3380153069 
 1087          15805.1850593293 
 1088          14587.1401196618 
 1089          13675.866515639 
 1090          12845.358427869 
 1091          12032.8400968996 
 1092          11290.4363584958 
 1093          10578.8310869542 
 1094          9868.97655427774 
 1095          9266.99934249317 
 1096          8821.29153198375 
 1097          8518.31492466078 
 1098          8490.50619796196 
 1099          8629.0544725468 
 1100          8704.66384208652 
 1101          8758.91284186439 
 1102          8642.7546960686 
 1103          8646.55135941025 
 1104          8964.23473262725 
 1105          9358.74842026828 
 1106          9836.88733039508 
 1107          10598.3796633987 
 1108          11288.6979090394 
 1109          12389.9462007063 
 1110          13564.0730367818 
 1111          14788.6181106076 
 1112          16118.8440299868 
 1113          17420.9338700216 
 1114          18755.218252738 
 1115          20040.6300304629 
 1116          20956.1573916398 
 1117          21572.1565615871 
 1118          21831.5751575702 
 1119          21954.9156363891 
 1120          21975.1861436609 
 1121          21139.4457596279 
 1122          19965.9283828312 
 1123          18548.7190304007 
 1124          17052.9705243322 
 1125          15653.291763741 
 1126          14469.8075987759 
 1127          13546.5647457122 
 1128          12714.1476238047 
 1129          11964.056536671 
 1130          11368.8622641321 
 1131          10848.4451585961 
 1132          10393.9125170242 
 1133          9971.13953693991 
 1134          9504.80670443238 
 1135          9166.078985605 
 1136          8840.20681763161 
 1137          8565.78658429599 
 1138          8279.66115707049 
 1139          7946.24938440527 
 1140          7642.85787969505 
 1141          7382.3549447991 
 1142          7078.16460630407 
 1143          6730.100745608 
 1144          6363.84951003662 
 1145          6020.8143849162 
 1146          5823.77080972886 
 1147          5733.60008117249 
 1148          5570.33468230323 
 1149          5419.43350712991 
 1150          5227.1196110378 
 1151          5073.36250098081 
 1152          4977.04548432114 
 1153          4891.90458387545 
 1154          4784.65114335293 
 1155          4666.97661539694 
 1156          4583.63299606797 
 1157          4495.6819368463 
 1158          4372.06310956328 
 1159          4414.59438487426 
 1160          4551.15002769947 
 1161          4597.15416642805 
 1162          4601.65279894607 
 1163          4612.35366867598 
 1164          4639.98477218712 
 1165          4795.61364762804 
 1166          5016.56640724324 
 1167          5188.01237315523 
 1168          5289.15659460496 
 1169          5418.02572144281 
 1170          5659.34065445084 
 1171          5895.64463005609 
 1172          6054.86506614101 
 1173          6114.77808136371 
 1174          6177.56133453722 
 1175          6218.81909018818 
 1176          6217.46484017436 
 1177          6295.51915850854 
 1178          6403.55921428343 
 1179          6480.45019185499 
 1180          6592.60011660748 
 1181          6520.99112478143 
 1182          6380.41361319091 
 1183          6331.80630923971 
 1184          6289.81866218212 
 1185          6265.56271127305 
 1186          6208.32788611368 
 1187          6110.9329879112 
 1188          5959.34729911502 
 1189          5790.49668981296 
 1190          5613.16388266146 
 1191          5410.75944406524 
 1192          5223.90002168205 
 1193          5099.39781683377 
 1194          5003.82667487763 
 1195          4981.40205462281 
 1196          4988.80773500308 
 1197          5019.21510803163 
 1198          5033.07051718362 
 1199          4993.69159411525 
 1200          4941.86491724862 
 1201          4891.70764680341 
 1202          4934.52774567372 
 1203          5022.15616497195 
 1204          5112.25478505564 
 1205          5244.73675756024 
 1206          5336.74630886977 
 1207          5396.59100510076 
 1208          5585.41304794159 
 1209          5765.07362702981 
 1210          5978.78917454492 
 1211          6058.29830230054 
 1212          6094.5430030876 
 1213          6163.86076501689 
 1214          6243.65627720362 
 1215          6301.4264430794 
 1216          6334.68960533345 
 1217          6368.18211596384 
 1218          6201.72466428344 
 1219          5974.78892565837 
 1220          5745.36649953406 
 1221          5536.06939675175 
 1222          5350.37924700219 
 1223          5199.25375090275 
 1224          5111.16462982633 
 1225          5031.46856280584 
 1226          4943.261535999 
 1227          4830.89486630858 
 1228          4885.09300213546 
 1229          5056.51319759818 
 1230          5265.35308305573 
 1231          5473.47986897471 
 1232          5627.44734198301 
 1233          5768.8646267006 
 1234          5883.02069764341 
 1235          6132.88599968242 
 1236          6474.01751533673 
 1237          6769.72423492893 
 1238          6944.24412840334 
 1239          7106.92713988739 
 1240          7310.85567939385 
 1241          7460.00419630062 
 1242          7625.30548347286 
 1243          7732.51563035428 
 1244          7838.09733040684 
 1245          7954.05193746146 
 1246          8039.70754946084 
 1247          8085.93669240432 
 1248          8124.55642236735 
 1249          8140.71296846984 
 1250          8153.74369286944 
 1251          8335.46629023287 
 1252          8540.67268227187 
 1253          8697.46897954908 
 1254          8850.48338087508 
 1255          8999.69475633775 
 1256          9127.46162674506 
 1257          9286.27281312151 
 1258          9506.97861232293 
 1259          9714.980455656 
 1260          9851.18314790099 
 1261          9855.63693175801 
 1262          9856.52890479202 
 1263          9856.76658469923 
 1264          9838.0036267965 
 1265          9782.00300646239 
 1266          9693.72335274041 
 1267          9640.33575635008 
 1268          9655.77954861255 
 1269          9722.25255364924 
 1270          9822.53842832458 
 1271          9889.73479404608 
 1272          9902.20636769623 
 1273          10047.9055147086 
 1274          10456.781318385 
 1275          11006.0843919523 
 1276          11577.0346783596 
 1277          12147.420812064 
 1278          12682.7425362702 
 1279          13519.5281275553 
 1280          14500.4888029938 
 1281          15523.661505839 
 1282          16536.528760518 
 1283          17428.5061085355 
 1284          18256.6148771446 
 1285          19133.8593574114 
 1286          20077.9109251025 
 1287          21155.7711241539 
 1288          22364.5252552294 
 1289          23962.1122122854 
 1290          25855.9907334048 
 1291          27854.9812349945 
 1292          29866.0387022701 
 1293          31872.3493404736 
 1294          33908.5895665014 
 1295          35720.4427046431 
 1296          36954.6421855274 
 1297          37802.2191718305 
 1298          38387.5886774974 
 1299          39034.6928975808 
 1300          38957.0977036661 
 1301          38360.1908073686 
 1302          37562.9584284012 
 1303          36402.722010756 
 1304          34755.1559772931 
 1305          32773.0837534238 
 1306          30763.1561609433 
 1307          29003.7612197169 
 1308          27464.8437311675 
 1309          25819.894071697 
 1310          24049.8234140081 
 1311          22589.3385800817 
 1312          21370.2690920495 
 1313          20164.7018780155 
 1314          19004.1354053752 
 1315          18094.6864621574 
 1316          17443.881351977 
 1317          16758.0828926188 
 1318          16062.9794273652 
 1319          15231.3613835915 
 1320          14428.859038913 
 1321          13610.5386170989 
 1322          12917.9270570757 
 1323          12294.9958256295 
 1324          11653.8680361395 
 1325          11113.0223037785 
 1326          10662.0667905292 
 1327          10218.6660551531 
 1328          9911.55355847714 
 1329          9632.08329489557 
 1330          9326.19635592732 
 1331          9081.9983173066 
 1332          8901.32828912987 
 1333          8787.71087339136 
 1334          8782.02777971776 
 1335          8809.49307775635 
 1336          8850.4083204217 
 1337          8919.32954695228 
 1338          8947.0716642616 
 1339          8970.85484285321 
 1340          8898.25220213937 
 1341          8877.15320993411 
 1342          8877.17090862234 
 1343          8732.26030084364 
 1344          8560.55416748635 
 1345          8299.05469070193 
 1346          8064.47502563599 
 1347          7918.33263970722 
 1348          7783.43623861466 
 1349          7711.09880130089 
 1350          7612.99067177451 
 1351          7566.29348968047 
 1352          7515.96230255317 
 1353          7474.84504472417 
 1354          7435.06210325353 
 1355          7397.86792400868 
 1356          7394.32647133395 
 1357          7438.74887706243 
 1358          7595.37469244182 
 1359          7732.0406954363 
 1360          7722.99036421626 
 1361          7659.46945647584 
 1362          7649.46274324184 
 1363          7942.62581838963 
 1364          8064.45480620055 
 1365          8185.27597251823 
 1366          8005.87857579236 
 1367          7984.02069168101 
 1368          8048.62109736672 
 1369          8097.81024880686 
 1370          8181.88954976272 
 1371          8196.05843103989 
 1372          8148.23408108689 
 1373          8110.09765688047 
 1374          8047.10828114848 
 1375          8047.70560997766 
 1376          8040.99951171883 
 1377          7993.19057909853 
 1378          7913.96994399101 
 1379          7827.20620878603 
 1380          7734.96023641171 
 1381          7588.59789189065 
 1382          7430.61852265799 
 1383          7246.23023676032 
 1384          7069.16000769369 
 1385          6947.62825303891 
 1386          6865.5352704603 
 1387          6911.41874748981 
 1388          6955.12846783364 
 1389          6806.02298159666 
 1390          6774.02283479323 
 1391          6753.46422996176 
 1392          6845.47651823723 
 1393          6884.98339749849 
 1394          6926.12671779357 
 1395          6965.2246091726 
 1396          6987.09677991686 
 1397          6984.1253885434 
 1398          7076.22281750482 
 1399          7296.39696886804 
 1400          7453.98859007988 
 1401          7587.73852286295 
 1402          7664.57530614166 
 1403          7693.98012967197 
 1404          7824.69538117024 
 1405          8061.22462486159 
 1406          8374.047083256 
 1407          8605.57676318924 
 1408          8825.6926050051 
 1409          8888.87373351506 
 1410          8976.55916583717 
 1411          9177.86399566029 
 1412          9402.81840698322 
 1413          9722.51520899557 
 1414          10115.9246013418 
 1415          10518.1414132337 
 1416          10956.0753804686 
 1417          11425.1600677297 
 1418          11904.1304728696 
 1419          12710.8732951422 
 1420          13505.9798826142 
 1421          14428.6204625943 
 1422          15489.8027227966 
 1423          16751.6193061409 
 1424          18363.7907356697 
 1425          20307.2384481778 
 1426          22544.2107152631 
 1427          25247.4969920574 
 1428          28408.95722473 
 1429          31793.3854570259 
 1430          35329.1381914486 
 1431          38965.1027352833 
 1432          42453.9838040388 
 1433          45355.5487087844 
 1434          47609.3932195031 
 1435          49472.7105347367 
 1436          50661.2316422254 
 1437          51305.9893877766 
 1438          52039.2231797691 
 1439          51739.8771890893 
 1440          50832.0116052064 
 1441          50002.6010374516 
 1442          49330.2766003516 
 1443          48774.4852841633 
 1444          48369.6054657169 
 1445          48008.0440146148 
 1446          47560.0133822911 
 1447          47062.5013568354 
 1448          46562.9365741034 
 1449          46341.1866517688 
 1450          46216.1451368425 
 1451          46243.1126879773 
 1452          46237.2678219514 
 1453          46194.9769074375 
 1454          46172.6012793653 
 1455          45815.7841417733 
 1456          45138.157373243 
 1457          44104.9535827326 
 1458          42872.4168790233 
 1459          41699.1996184504 
 1460          40161.91106964 
 1461          38371.6238949071 
 1462          36700.9741937919 
 1463          35077.2415211194 
 1464          33553.8203631577 
 1465          32224.2036781704 
 1466          30950.6555985729 
 1467          29746.1335511291 
 1468          28866.8299523196 
 1469          27966.3138557612 
 1470          26963.5174689507 
 1471          26150.5693418216 
 1472          25326.006990131 
 1473          24988.2086799392 
 1474          24590.0312166849 
 1475          23950.9060454206 
 1476          23263.2007040563 
 1477          22484.4049567399 
 1478          21597.6535342646 
 1479          20604.7660620636 
 1480          19646.381687549 
 1481          18643.6552126793 
 1482          17570.0848235031 
 1483          16530.7056770675 
 1484          15476.2500567977 
 1485          14403.6536940702 
 1486          13464.7407915438 
 1487          12724.2932256265 
 1488          12031.0199229307 
 1489          11347.8669030077 
 1490          10711.3761436604 
 1491          10085.729169023 
 1492          9744.48494259744 
 1493          9367.76197334443 
 1494          8977.58456577539 
 1495          8601.35413341315 
 1496          8350.6460565716 
 1497          8196.2751509592 
 1498          7968.16777783691 
 1499          7661.28923534949 
 1500          7475.56401050516 
 1501          7373.22122151699 
 1502          7240.66360739087 
 1503          7004.18580602228 
 1504          6827.00287118969 
 1505          6710.770628991 
 1506          6621.64812479863 
 1507          6397.15606308018 
 1508          6183.07170733446 
 1509          6134.15821905674 
 1510          6093.18288406884 
 1511          6109.06402927432 
 1512          6052.90965058015 
 1513          5895.08338492704 
 1514          5718.14294901783 
 1515          5564.88667384279 
 1516          5522.67066772281 
 1517          5512.02902694036 
 1518          5480.70156864619 
 1519          5403.14367045354 
 1520          5317.74448500806 
 1521          5303.34781295408 
 1522          5203.86886063188 
 1523          5101.74729695964 
 1524          4959.44294282194 
 1525          4806.80232148298 
 1526          4762.37883534491 
 1527          4801.25868629051 
 1528          4786.3295334459 
 1529          4756.27748432378 
 1530          4564.76380237679 
 1531          4497.98851729795 
 1532          4472.77936081406 
 1533          4448.07555016876 
 1534          4401.53996375606 
 1535          4338.6892619824 
 1536          4378.23885127605 
 1537          4428.24655590777 
 1538          4395.6233804201 
 1539          4355.31596041165 
 1540          4326.12010683421 
 1541          4287.45326388709 
 1542          4250.61972428495 
 1543          4215.66416284012 
 1544          4173.36269270687 
 1545          4195.54174913131 
 1546          4238.21141242015 
 1547          4115.96244699849 
 1548          3978.37172563963 
 1549          3944.19711638851 
 1550          4064.57419024337 
 1551          4052.58437851658 
 1552          3964.73955119866 
 1553          3935.57418879686 
 1554          3935.03303273737 
 1555          3997.6237447429 
 1556          3865.46064984499 
 1557          3789.11293975992 
 1558          3784.66019662554 
 1559          3738.0404910804 
 1560          3709.97337957432 
 1561          3768.71210698012 
 1562          3829.39385130267 
 1563          3823.84792649097 
 1564          3806.06115720949 
 1565          3660.74014143189 
 1566          3619.87948679776 
 1567          3637.10947700513 
 1568          3658.2274161039 
 1569          3562.2631774601 
 1570          3481.48590626225 
 1571          3473.3985953012 
 1572          3467.3930773875 
 1573          3429.46092365341 
 1574          3473.12523809623 
 1575          3473.69620468684 
 1576          3425.75287988365 
 1577          3334.14826104827 
 1578          3373.02725294785 
 1579          3473.3790502877 
 1580          3511.87580494518 
 1581          3516.75506334271 
 1582          3496.10704719044 
 1583          3428.59887101395 
 1584          3446.03488243909 
 1585          3416.19225200594 
 1586          3323.14128021051 
 1587          3248.72897087105 
 1588          3231.31236935795 
 1589          3277.88984917462 
 1590          3276.69346339964 
 1591          3223.7971431052 
 1592          3155.48408035422 
 1593          3146.05320509077 
 1594          3149.45535672257 
 1595          3247.06680606845 
 1596          3322.67711750844 
 1597          3314.90636701021 
 1598          3290.36360515867 
 1599          3140.28796778131 
 1600          3045.31586174181 
 1601          3033.11344382714 
 1602          3127.88330574982 
 1603          3232.43652966229 
 1604          3136.8798462272 
 1605          3053.8441878027 
 1606          3035.43677450546 
 1607          3095.13411436953 
 1608          3096.00563200635 
 1609          2969.237960173 
 1610          2947.97431270063 
 1611          2976.58949009419 
 1612          2982.69812609156 
 1613          2913.91085445585 
 1614          2831.30667271975 
 1615          2803.4126201322 
 1616          2802.22230967554 
 1617          2782.56840785781 
 1618          2810.29810154706 
 1619          2861.42881525969 
 1620          2837.12383760225 
 1621          2773.98361304501 
 1622          2735.95632572707 
 1623          2803.6469023225 
 1624          2830.01270819343 
 1625          2772.24129465496 
 1626          2703.33520016194 
 1627          2689.41120030312 
 1628          2723.05942873966 
 1629          2751.50530430063 
 1630          2757.68007161141 
 1631          2805.66104405418 
 1632          2861.81960245155 
 1633          2835.99579732992 
 1634          2792.14759641397 
 1635          2776.85645735205 
 1636          2778.92918146381 
 1637          2747.96617509091 
 1638          2711.78220200005 
 1639          2693.16753925901 
 1640          2750.62854834697 
 1641          2808.08455451955 
 1642          2810.02216423475 
 1643          2749.56717535304 
 1644          2733.31811770283 
 1645          2786.01057915228 
 1646          2797.16532563585 
 1647          2713.22089999284 
 1648          2636.16709858828 
 1649          2629.77734666519 
 1650          2649.3650009575 
 1651          2640.46440903595 
 1652          2645.56159486436 
 1653          2693.31545555676 
 1654          2677.84119375085 
 1655          2619.41909613277 
 1656          2598.93182193972 
 1657          2648.31558434415 
 1658          2744.46892909608 
 1659          2730.05127053188 
 1660          2743.00272692668 
 1661          2643.20491220446 
 1662          2599.91693225596 
 1663          2675.73153765532 
 1664          2690.10441566658 
 1665          2672.99448506429 
 1666          2634.82485808812 
 1667          2677.61501037491 
 1668          2756.66951605594 
 1669          2805.06341442981 
 1670          2836.05738491778 
 1671          2770.56822181727 
 1672          2724.02823958666 
 1673          2672.48062589403 
 1674          2818.95984869241 
 1675          2823.81469365554 
 1676          2864.38313564822 
 1677          2756.81767942669 
 1678          2679.31244655429 
 1679          2717.25737016094 
 1680          2684.4187882595 
 1681          2644.96373043243 
 1682          2538.34152460003 
 1683          2569.04902464636 
 1684          2583.15808090016 
 1685          2581.00826626054 
 1686          2622.19869163666 
 1687          2640.18120565754 
 1688          2619.62073894593 
 1689          2616.9139968285 
 1690          2607.35859268845 
 1691          2631.55607879757 
 1692          2691.55824536635 
 1693          2712.03743810954 
 1694          2798.76363366551 
 1695          2874.55228626967 
 1696          2831.75910971237 
 1697          2759.8644335697 
 1698          2634.91915520457 
 1699          2602.16723020206 
 1700          2661.55563911728 
 1701          2728.74811376153 
 1702          2775.32208285209 
 1703          2700.71612962795 
 1704          2565.12149755754 
 1705          2554.63607838381 
 1706          2566.62837430266 
 1707          2568.731773715 
 1708          2511.61542944461 
 1709          2483.32954700277 
 1710          2501.35814779496 
 1711          2584.65368425219 
 1712          2589.82234515868 
 1713          2569.44797923578 
 1714          2580.91330466624 
 1715          2525.37412702594 
 1716          2448.7996967529 
 1717          2393.92186034967 
 1718          2407.76916129078 
 1719          2427.92461856548 
 1720          2388.08919206769 
 1721          2345.44210368677 
 1722          2326.26232922443 
 1723          2278.40228499151 
 1724          2208.70310534565 
 1725          2244.46261750756 
 1726          2334.57090364137 
 1727          2375.40716850841 
 1728          2337.21046393889 
 1729          2282.72798356869 
 1730          2261.65615739935 
 1731          2295.9228484164 
 1732          2320.87308320045 
 1733          2245.38726187346 
 1734          2238.53802430584 
 1735          2229.41937533933 
 1736          2334.5429880732 
 1737          2298.62938341132 
 1738          2297.47106117054 
 1739          2325.87382071529 
 1740          2227.64685800412 
 1741          2130.19086009225 
 1742          2082.71157235227 
 1743          2215.74418720128 
 1744          2299.56043460033 
 1745          2327.3262035517 
 1746          2282.02628517767 
 1747          2214.87622045203 
 1748          2114.34285244532 
 1749          2043.83503859015 
 1750          2035.0023872634 
 1751          2074.43849213699 
 1752          2093.49760782591 
 1753          2062.54965119544 
 1754          2024.50578012915 
 1755          2002.55749240306 
 1756          2063.17930540461 
 1757          2123.15598647541 
 1758          2134.50189044502 
 1759          2152.5479640976 
 1760          2126.62131162699 
 1761          2116.74431102104 
 1762          2104.33970324579 
 1763          2073.76121932086 
 1764          2006.85755934121 
 1765          2000.91120121713 
 1766          1961.82545102714 
 1767          1926.75858835215 
 1768          1862.21612086 
 1769          1813.49440183499 
 1770          1824.21305195496 
 1771          1792.54353768166 
 1772          1805.96141392884 
 1773          1831.13878792133 
 1774          1850.74065269341 
 1775          1905.63575961281 
 1776          1939.84792604993 
 1777          2022.38164807759 
 1778          1978.33513570376 
 1779          1946.64960582934 
 1780          1930.89487026919 
 1781          1970.63225092931 
 1782          2093.09499800914 
 1783          2114.17308219146 
 1784          2021.24105710794 
 1785          1985.85619932594 
 1786          1956.39778053162 
 1787          1916.35135434068 
 1788          1865.7635004729 
 1789          1843.02341653897 
 1790          1858.30373414079 
 1791          1823.98019036465 
 1792          1766.4292896585 
 1793          1710.75328391973 
 1794          1732.18700680014 
 1795          1749.40289431096 
 1796          1772.16874567092 
 1797          1758.59936180501 
 1798          1681.53408758226 
 1799          1727.72060391004 
 1800          1812.01422277945 
 1801          1841.31262587091 
 1802          1691.30969016483 
 1803          1638.12504540677 
 1804          1732.64981731679 
 1805          1814.15404602752 
 1806          1725.59878403197 
 1807          1723.439310055 
 1808          1744.24951191987 
 1809          1677.90564936824 
 1810          1637.58660930144 
 1811          1734.85251868717 
 1812          1876.05126548945 
 1813          1834.72869489304 
 1814          1787.05526980962 
 1815          1737.81684811129 
 1816          1723.74997776519 
 1817          1750.10920830391 
 1818          1769.65646431295 
 1819          1801.07522080638 
 1820          1839.12151135173 
 1821          1820.3889450917 
 1822          1758.75874390303 
 1823          1730.5147312047 
 1824          1682.87184482854 
 1825          1715.16704433703 
 1826          1777.40036906654 
 1827          1729.6909993197 
 1828          1670.71710577818 
 1829          1676.03783142384 
 1830          1807.42345717552 
 1831          1779.73223692265 
 1832          1704.36851576915 
 1833          1621.62848488271 
 1834          1664.306010819 
 1835          1683.66256838136 
 1836          1715.73985877223 
 1837          1756.19321572301 
 1838          1737.76594641246 
 1839          1723.15902126051 
 1840          1744.00066060776 
 1841          1725.63175318384 
 1842          1682.30903310406 
 1843          1657.42295941493 
 1844          1648.32654966426 
 1845          1659.39250402377 
 1846          1671.70117560844 
 1847          1636.1218595475 
 1848          1610.54563508915 
 1849          1646.45673541814 
 1850          1690.70832529063 
 1851          1723.83772586195 
 1852          1684.03329228426 
 1853          1654.90970250443 
 1854          1682.18038930374 
 1855          1688.16587654384 
 1856          1681.64861826508 
 1857          1693.26836843254 
 1858          1688.90348203458 
 1859          1695.36786395434 
 1860          1630.64444232554 
 1861          1555.53115112636 
 1862          1503.66994128934 
 1863          1498.51408036459 
 1864          1523.07444145757 
 1865          1648.10546548202 
 1866          1669.25391100548 
 1867          1572.29881231726 
 1868          1580.24905548975 
 1869          1557.79647633517 
 1870          1638.46532624548 
 1871          1689.43822582759 
 1872          1655.84426312096 
 1873          1609.35235707644 
 1874          1610.91680334674 
 1875          1624.28906777678 
 1876          1636.26957712633 
 1877          1607.63697509709 
 1878          1611.65894825511 
 1879          1565.67793820324 
 1880          1523.89916610243 
 1881          1535.37381043921 
 1882          1645.75006287361 
 1883          1714.6039891403 
 1884          1659.15996189003 
 1885          1610.61147062671 
 1886          1625.67807852572 
 1887          1606.51516873109 
 1888          1596.16199783404 
 1889          1630.65789551819 
 1890          1620.29208957561 
 1891          1588.47187159284 
 1892          1523.35873859691 
 1893          1525.54896633204 
 1894          1550.71285250644 
 1895          1582.9245503447 
 1896          1599.41414358819 
 1897          1614.57026843592 
 1898          1539.17724667679 
 1899          1495.259360392 
 1900          1484.45512798896 
 1901          1475.16905284317 
 1902          1417.74968431395 
 1903          1394.29496710456 
 1904          1386.5144593017 
 1905          1411.7958718937 
 1906          1469.35174968086 
 1907          1529.34562562157 
 1908          1545.46348124475 
 1909          1531.6585533149 
 1910          1501.99065406862 
 1911          1503.80494655938 
 1912          1494.67320073714 
 1913          1525.25027186289 
 1914          1506.4463303836 
 1915          1507.37140170299 
 1916          1490.23175367612 
 1917          1448.83078283989 
 1918          1420.49041294536 
 1919          1421.12640325836 
 1920          1421.43276675343 
 1921          1437.27016601227 
 1922          1392.56476270331 
 1923          1308.30328718032 
 1924          1326.98181389999 
 1925          1345.94851214879 
 1926          1461.28793362014 
 1927          1487.10261800951 
 1928          1417.02702986554 
 1929          1396.99094631009 
 1930          1398.60193303424 
 1931          1402.38458261335 
 1932          1399.76739691816 
 1933          1436.56245937132 
 1934          1311.12515810877 
 1935          1249.16810484958 
 1936          1322.23828270455 
 1937          1374.2364783536 
 1938          1414.25900292421 
 1939          1495.27204547812 
 1940          1498.10579337802 
 1941          1486.98290231366 
 1942          1382.07367173026 
 1943          1281.04343943399 
 1944          1342.11235320999 
 1945          1438.96688861633 
 1946          1498.21115384264 
 1947          1412.33355265285 
 1948          1359.53670460863 
 1949          1270.66599721845 
 1950          1387.25886856183 
 1951          1346.14622854479 
 1952          1334.88880460044 
 1953          1295.90370849969 
 1954          1287.09767616867 
 1955          1254.1796002762 
 1956          1234.96888491914 
 1957          1172.98074355817 
 1958          1234.38588368076 
 1959          1298.38343449953 
 1960          1292.53842468498 
 1961          1240.13043439841 
 1962          1218.40157477379 
 1963          1259.71695994103 
 1964          1332.60016363185 
 1965          1376.27127743356 
 1966          1441.65058913433 
 1967          1426.21460745115 
 1968          1383.8447513238 
 1969          1326.5005759405 
 1970          1296.29306209879 
 1971          1295.59007353009 
 1972          1299.81586849933 
 1973          1240.49230699554 
 1974          1171.15743406693 
 1975          1229.91919657923 
 1976          1322.71262762584 
 1977          1338.32851126621 
 1978          1237.71607235373 
 1979          1272.99939043399 
 1980          1294.79547708473 
 1981          1283.47859549098 
 1982          1289.43971620718 
 1983          1298.9214968917 
 1984          1252.64857193444 
 1985          1283.18327722654 
 1986          1267.45866104385 
 1987          1266.16414369755 
 1988          1241.68973526204 
 1989          1278.79588895607 
 1990          1265.16715210622 
 1991          1240.22838539871 
 1992          1207.25800813495 
 1993          1145.80672111943 
 1994          1123.21337214744 
 1995          1135.77645814854 
 1996          1184.45602399735 
 1997          1237.49231180427 
 1998          1244.16802121354 
 1999          1240.74400951753 
 2000          1212.6148221139 
 2001          1208.8899687294 
 2002          1160.53230936502 
 2003          1169.44859768473 
 2004          1218.2247950482 
 2005          1150.04442351043 
 2006          1125.09739958046 
 2007          1169.59509342 
 2008          1246.57327168418 
 2009          1251.01723787589 
 2010          1206.93660177124 
 2011          1207.13924279464 
 2012          1113.27306066201 
 2013          1175.84660650216 
 2014          1240.35330864948 
 2015          1239.55392989933 
 2016          1191.94982059494 
 2017          1236.6763892493 
 2018          1199.15615715578 
 2019          1158.7289966276 
 2020          1141.66928542787 
 2021          1262.22865916612 
 2022          1248.07198983582 
 2023          1276.62747015938 
 2024          1247.30946491532 
 2025          1149.53432141478 
 2026          1046.77201071682 
 2027          1070.79755744202 
 2028          1205.04952798928 
 2029          1182.21790008367 
 2030          1167.77985717177 
 2031          1144.82321450097 
 2032          1189.55621583666 
 2033          1225.05649477212 
 2034          1248.15574239678 
 2035          1217.9701744651 
 2036          1182.80293525197 
 2037          1193.30566943086 
 2038          1162.93409528119 
 2039          1179.20689732922 
 2040          1155.56549490836 
 2041          1005.94435271757 
 2042          899.506909646342 
 2043          948.183246478505 
 2044          1052.73601418689 
 2045          950.37631818009 
 2046          913.385599822782 
 2047          885.169340971191 
 2048          940.998579623787 
 2049          994.327848666433 
 2050          1059.55065305325 
 2051          1018.31273907704 
 2052          1045.72303452124 
 2053          1145.10050125085 
 2054          1108.17359870593 
 2055          1075.71146430938 
 2056          962.414076740974 
 2057          976.934804097387 
 2058          1042.62459674091 
 2059          1141.93468102445 
 2060          1065.94769870821 
 2061          981.688096348334 
 2062          947.329952026516 
 2063          1040.32294608059 
 2064          1073.71247471206 
 2065          923.120727362373 
 2066          925.131205203725 
 2067          954.930376211051 
 2068          999.433178129366 
 2069          998.268901970644 
 2070          1095.01202344294 
 2071          1188.19662126329 
 2072          1098.00533673861 
 2073          1013.01062135244 
 2074          939.444609271277 
 2075          956.616649311201 
 2076          955.734819947641 
 2077          995.880457637551 
 2078          1041.17431150262 
 2079          1030.01689236417 
 2080          975.546706141263 
 2081          983.549136042347 
 2082          1005.03423538903 
 2083          1059.54280126463 
 2084          1104.77012690108 
 2085          1096.48862249438 
 2086          1104.82536561189 
 2087          1104.51585006684 
 2088          1070.25928166922 
 2089          1012.41266462154 
 2090          926.358828827287 
 2091          859.218409050869 
 2092          880.609173716537 
 2093          962.392769581169 
 2094          992.524295634635 
 2095          980.14047927439 
 2096          998.469310248968 
 2097          1016.38271135795 
 2098          987.243838353565 
 2099          947.470667168308 
 2100          945.8329361323 
 2101          1032.68350769148 
 2102          1114.8908144975 
 2103          1031.88721618771 
 2104          946.988350670788 
 2105          884.156901096648 
 2106          1047.94761421341 
 2107          1081.27388593809 
 2108          984.660156676733 
 2109          904.440879578936 
 2110          965.558495860453 
 2111          1029.89060999088 
 2112          1053.20605961773 
 2113          1058.29808998428 
 2114          1019.59504239593 
 2115          1006.74120326653 
 2116          1018.65362912735 
 2117          1028.68548459215 
 2118          1034.60519193236 
 2119          969.51703945841 
 2120          924.513593790207 
 2121          879.880928969655 
 2122          908.505467692335 
 2123          983.27042915001 
 2124          1015.48621847404 
 2125          1074.43807072087 
 2126          1084.13183262121 
 2127          1047.84533312089 
 2128          1007.66444625501 
 2129          1007.39730089827 
 2130          944.910058999732 
 2131          905.477356832601 
 2132          882.172183625395 
 2133          882.962213867042 
 2134          978.579868999838 
 2135          995.995938580163 
 2136          972.061328137183 
 2137          962.712961449291 
 2138          973.328821743985 
 2139          980.726372767732 
 2140          988.602640285259 
 2141          959.257010950152 
 2142          1056.44364894258 
 2143          1154.05387356542 
 2144          1176.42735473776 
 2145          1086.96982859278 
 2146          1041.1080105314 
 2147          995.677013638721 
 2148          958.281889710609 
 2149          949.542228722355 
 2150          940.668746050548 
 2151          884.63833126373 
 2152          907.296990013826 
 2153          942.541887883756 
 2154          954.568748857157 
 2155          965.809984357274 
 2156          1071.99012902591 
 2157          1061.24229378155 
 2158          1049.46363676582 
 2159          960.22407975648 
 2160          1016.9873276851 
 2161          1051.85880609799 
 2162          963.660289012585 
 2163          898.64772178549 
 2164          908.659986328819 
 2165          974.674208933804 
 2166          992.723071706986 
 2167          947.137628085596 
 2168          836.372797291644 
 2169          820.926493975477 
 2170          871.92762403904 
 2171          985.234022200032 
 2172          967.319087256207 
 2173          959.09043537278 
 2174          965.36894325269 
 2175          990.355486360788 
 2176          1039.49667373354 
 2177          1074.17137071927 
 2178          1003.46384534198 
 2179          990.701114049076 
 2180          1129.34766123159 
 2181          1263.53820164351 
 2182          1202.67843965267 
 2183          1099.70487901044 
 2184          1159.89051355251 
 2185          1186.75508662234 
 2186          1203.10096941664 
 2187          1128.24029720676 
 2188          1078.60220807663 
 2189          1116.71624733965 
 2190          1125.96154978922 
 2191          1101.93939653722 
 2192          1072.65812238288 
 2193          1043.33303954189 
 2194          1016.35753422554 
 2195          990.60674917415 
 2196          856.606570496063 
 2197          881.328571836691 
 2198          920.876534467505 
 2199          1015.36045226299 
 2200          1055.77530720208 
 2201          1104.04565666041 
 2202          1109.27813612457 
 2203          1130.17335354936 
 2204          1062.16432550083 
 2205          927.04571453101 
 2206          812.876674467108 
 2207          925.710223978042 
 2208          982.618640541028 
 2209          919.074515279962 
 2210          868.923774300778 
 2211          900.544573489677 
 2212          896.433176408114 
 2213          803.424828202579 
 2214          753.412329779442 
 2215          886.772582123284 
 2216          936.370453527597 
 2217          891.282828774857 
 2218          823.231509102408 
 2219          812.468223369145 
 2220          823.857919533491 
 2221          849.002016965282 
 2222          878.807418807597 
 2223          942.489414796912 
 2224          929.392883259018 
 2225          917.036661892355 
 2226          836.623927135909 
 2227          832.284301275052 
 2228          798.617511553605 
 2229          876.051111037792 
 2230          879.945689908662 
 2231          812.357401675513 
 2232          759.925937894605 
 2233          782.078818241027 
 2234          787.305261240179 
 2235          816.189092272735 
 2236          787.62645500326 
 2237          886.539892472748 
 2238          970.62389458475 
 2239          854.658043960672 
 2240          835.577885468521 
 2241          904.790141321266 
 2242          918.057292920673 
 2243          842.93480807452 
 2244          827.770870949571 
 2245          779.596018613345 
 2246          784.635837303752 
 2247          727.009399114672 
 2248          656.84835817029 
 2249          639.13381325116 
 2250          797.596666300791 
 2251          872.894141681136 
 2252          789.040131326814 
 2253          760.752923626695 
 2254          827.91045467334 
 2255          729.497859816763 
 2256          624.825005482453 
 2257          710.089575287183 
 2258          764.434689929254 
 2259          762.629170209893 
 2260          649.064206285018 
 2261          637.022731708662 
 2262          694.284167834783 
 2263          660.811260427713 
 2264          662.327328246315 
 2265          728.525044148295 
 2266          809.993348131884 
 2267          774.242299582999 
 2268          743.020700177603 
 2269          676.810953087766 
 2270          627.538119051901 
 2271          635.393540225191 
 2272          604.637491009109 
 2273          647.125725851583 
 2274          690.837208883412 
 2275          689.76382978434 
 2276          686.710379571803 
 2277          644.425627764622 
 2278          525.054389994525 
 2279          502.598258118145 
 2280          601.325699560284 
 2281          789.121950085189 
 2282          778.959118283393 
 2283          760.453544996297 
 2284          784.185696784734 
 2285          782.866352682289 
 2286          768.045894844298 
 2287          762.905100761359 
 2288          744.583014395859 
 2289          722.711221022046 
 2290          669.722850660265 
 2291          594.126071544065 
 2292          632.550876945939 
 2293          691.933529875809 
 2294          719.527956571115 
 2295          717.552364133318 
 2296          666.422500321843 
 2297          617.344009954551 
 2298          762.813112413799 
 2299          805.876872380299 
 2300          798.691575287059 
 2301          674.787667923318 
 2302          585.031361047311 
 2303          587.563629290701 
 2304          633.359805746144 
 2305          607.511446022096 
 2306          621.177992721071 
 2307          626.616003563836 
 2308          641.5960554072 
 2309          682.808551227925 
 2310          649.702340845496 
 2311          643.053645180155 
 2312          591.798972604014 
 2313          614.844736775409 
 2314          768.665853364092 
 2315          720.851577678927 
 2316          653.905115862931 
 2317          679.867646898722 
 2318          634.822319269083 
 2319          604.357666778374 
 2320          684.624385644136 
 2321          643.115833168271 
 2322          519.706277046442 
 2323          462.680409974082 
 2324          450.270087417954 
 2325          532.49831953465 
 2326          575.735065134178 
 2327          608.060442123715 
 2328          608.043233956873 
 2329          578.756652007846 
 2330          551.603448606316 
 2331          514.224891264203 
 2332          549.534098238729 
 2333          426.759557492383 
 2334          433.422299357406 
 2335          573.117489078829 
 2336          514.19436437814 
 2337          409.166817125674 
 2338          373.442683997191 
 2339          360.770532867882 
##END=
