##TITLE=1-heptanol 2.jdx
##JCAMP-DX=5.00
##DATE=7/14/2010 1:21:51 PM
##DATATYPE=Raman Spectrum
##DATA CLASS=XYDATA
##ORIGIN=ENWAVE
##OWNER=ENWAVE
##NPOINTS=2090
##FIRSTX= 1
##LASTX= 2339
##MAXX= 2339
##MINX= 1
##XFACTOR=1.0000000000
##YFACTOR=1.0000000000
##FIRSTY= 367.869579916603
##DELTAX=1.000000000000
##XUNITS=1/CM
##YUNITS=ARBITRARY UNITS
##XYDATA=(X++(Y..Y))
 1             367.869579916603 
 251           367.869579916603 
 252           1815.19844725774 
 253           4468.51132933455 
 254           6929.56859705898 
 255           9183.43110001387 
 256           10726.6355715769 
 257           10955.8027054504 
 258           11038.1485750015 
 259           11512.8025796217 
 260           12163.9849897834 
 261           12727.1535430129 
 262           13175.8162284691 
 263           13612.4508998221 
 264           14067.171947988 
 265           14513.4828771139 
 266           15005.6328526447 
 267           15767.5575005279 
 268           16735.5382704188 
 269           17759.6955040145 
 270           18805.8840477707 
 271           19925.3775497131 
 272           21106.0691403646 
 273           22233.1766460675 
 274           23350.2897442528 
 275           24470.8254603244 
 276           25530.1079270897 
 277           26579.7948892878 
 278           27631.0440734249 
 279           28606.8246972432 
 280           29387.0559385863 
 281           29860.666758575 
 282           29999.9706143426 
 283           29972.6952522042 
 284           29848.7225130845 
 285           29596.9034166164 
 286           29184.0233098118 
 287           28661.427500262 
 288           28114.8865745872 
 289           27584.649094346 
 290           27005.9384568068 
 291           26347.6407324889 
 292           25697.6115587647 
 293           25032.754793694 
 294           24328.4506866997 
 295           23618.2783163186 
 296           22905.6487501406 
 297           22206.9676857703 
 298           21557.2276678969 
 299           20954.9457447881 
 300           20313.6675004836 
 301           19556.5650703592 
 302           18837.6821343463 
 303           18142.5092116612 
 304           17386.9951890327 
 305           16687.8985374763 
 306           16004.2275763703 
 307           15275.3113009537 
 308           14604.7031674423 
 309           13984.2802718121 
 310           13364.0407563418 
 311           12734.345363057 
 312           12142.8408456908 
 313           11581.442538542 
 314           10993.4843337372 
 315           10510.6120170482 
 316           10150.45555815 
 317           9805.07057957377 
 318           9491.63218015025 
 319           9203.35679473851 
 320           8905.88997207211 
 321           8600.5469462506 
 322           8335.67255739004 
 323           8133.75975272695 
 324           7932.82195197439 
 325           7776.73638887107 
 326           7696.10199630157 
 327           7625.53415501141 
 328           7526.80839191868 
 329           7419.33348625964 
 330           7354.38801222067 
 331           7299.41504379908 
 332           7231.45979454103 
 333           7163.39902417116 
 334           7124.61576642414 
 335           7080.90957745126 
 336           7025.57359723712 
 337           7090.56086377696 
 338           7205.56033928324 
 339           7287.90590423586 
 340           7416.32795328183 
 341           7612.98787224283 
 342           7835.37415388957 
 343           8018.26358106806 
 344           8198.23053321723 
 345           8401.85797565576 
 346           8606.43164430348 
 347           8754.91592785937 
 348           8855.75259611681 
 349           8953.86691510711 
 350           9057.01928864311 
 351           9132.20972019892 
 352           9216.09644336128 
 353           9439.36507236311 
 354           9629.86332883833 
 355           9719.31147240555 
 356           9855.94082744436 
 357           9971.03044916584 
 358           10038.2969693965 
 359           10109.9286005529 
 360           10194.4699356207 
 361           10279.4315282134 
 362           10352.3308022885 
 363           10419.7723512831 
 364           10506.3656741008 
 365           10632.7174408712 
 366           10778.6653181927 
 367           10806.3534298239 
 368           10732.7812309072 
 369           10693.3407228667 
 370           10533.8457340381 
 371           10289.129739675 
 372           10081.3678811889 
 373           9787.56927364163 
 374           9422.46392316596 
 375           9079.01012230676 
 376           8805.43921511967 
 377           8554.38593717578 
 378           8291.79882812503 
 379           8043.22489596299 
 380           7846.61912883721 
 381           7754.52705155054 
 382           7791.04318604868 
 383           7879.73057051918 
 384           7962.88535276451 
 385           8042.79604983917 
 386           8177.38645706159 
 387           8330.88388202218 
 388           8495.28637052372 
 389           8713.1148648033 
 390           8890.53123500397 
 391           9007.9830670408 
 392           9135.85106143161 
 393           9318.68066189314 
 394           9519.00254195861 
 395           9678.31379356404 
 396           9779.02090021482 
 397           9778.68740656145 
 398           9675.94295616303 
 399           9540.86342701423 
 400           9456.10196098031 
 401           9272.62648951776 
 402           8817.29836246456 
 403           8337.48196770595 
 404           7844.29066201912 
 405           7284.71328144215 
 406           6783.83928339189 
 407           6420.26241006796 
 408           6144.44987300476 
 409           5845.23650287925 
 410           5615.68344452163 
 411           5483.32580608373 
 412           5392.36728479686 
 413           5300.9660793154 
 414           5204.72091546397 
 415           5095.88889926002 
 416           4957.06861307812 
 417           4876.9175579026 
 418           4850.21053521476 
 419           4804.51636806819 
 420           4841.53644862734 
 421           4930.61418176256 
 422           4990.43653294526 
 423           5048.39759485024 
 424           5097.72445977677 
 425           5144.78739188421 
 426           5231.11286506299 
 427           5372.02911505902 
 428           5547.21122201494 
 429           5715.39034752765 
 430           5843.68372867598 
 431           5926.8266790454 
 432           5999.83519913151 
 433           6126.20211423346 
 434           6307.98666716909 
 435           6546.81552684365 
 436           6816.70882224748 
 437           6969.71283300422 
 438           7070.52598674979 
 439           7234.67210368448 
 440           7412.88080370541 
 441           7628.62231487755 
 442           7879.90455028146 
 443           8093.97810430177 
 444           8203.14313496472 
 445           8262.71608376462 
 446           8344.77786476005 
 447           8387.53994769351 
 448           8440.20972148302 
 449           8491.14900784639 
 450           8421.89424087665 
 451           8304.89287269993 
 452           8207.31486752468 
 453           8107.76955531497 
 454           7906.07804938326 
 455           7668.82556126269 
 456           7433.79201055329 
 457           7117.68674475492 
 458           6843.52065469117 
 459           6662.86318749141 
 460           6511.30233138328 
 461           6338.83477982004 
 462           6176.33251273742 
 463           6032.40606181847 
 464           5833.14906595668 
 465           5576.36978815425 
 466           5278.87139967589 
 467           4996.0153708156 
 468           4878.11689033924 
 469           4866.61455685427 
 470           4855.18334596543 
 471           4845.87031833871 
 472           4780.19292642071 
 473           4670.43741621819 
 474           4581.84707868903 
 475           4487.4901018053 
 476           4386.31591763616 
 477           4333.16769522367 
 478           4399.55319614167 
 479           4492.28638007976 
 480           4557.70465072252 
 481           4614.51969754404 
 482           4651.37437340307 
 483           4705.66177087477 
 484           4777.33467371375 
 485           4789.38976305759 
 486           4781.89916945453 
 487           4791.11312951976 
 488           4817.86641625786 
 489           4866.37036553801 
 490           4940.08393901237 
 491           5036.13360516926 
 492           5124.85254419467 
 493           5104.05378604471 
 494           5022.55560877087 
 495           4982.92573718457 
 496           4902.00867368104 
 497           4817.3534932637 
 498           4788.65953083159 
 499           4805.56904203651 
 500           4826.6694065795 
 501           4854.68523182669 
 502           4883.19545492125 
 503           4838.71754518681 
 504           4832.76816950345 
 505           4902.30023259437 
 506           4942.00957719488 
 507           4962.44349911872 
 508           4987.76576688325 
 509           5016.29314086192 
 510           5026.57613257535 
 511           5056.2956618046 
 512           5113.06746110515 
 513           5164.45963011075 
 514           5206.51170117032 
 515           5232.09793452381 
 516           5234.8447227103 
 517           5220.29788421312 
 518           5209.30473094368 
 519           5186.67901691014 
 520           5126.08803351772 
 521           5049.39296015846 
 522           4979.0842453029 
 523           4930.82509782996 
 524           4914.62682101117 
 525           4932.02045238376 
 526           4914.24396787484 
 527           4861.64717445102 
 528           4930.5601643113 
 529           5040.2637055653 
 530           5100.79398662159 
 531           5091.89206790203 
 532           4989.44932828439 
 533           4819.93367855418 
 534           4625.84587222625 
 535           4440.32449066172 
 536           4310.10805022096 
 537           4227.08075601441 
 538           4127.77386060274 
 539           3946.93684925939 
 540           3753.56296881334 
 541           3609.41294898537 
 542           3503.7808947674 
 543           3395.47903125574 
 544           3307.18744145091 
 545           3240.78959854105 
 546           3143.70101555545 
 547           3073.30649439465 
 548           3065.07499832528 
 549           3087.92274077265 
 550           3068.2277568988 
 551           3005.35208047196 
 552           2952.35222666619 
 553           2943.84626281469 
 554           2907.5998986159 
 555           2869.26357318237 
 556           2840.66086207694 
 557           2758.07609074544 
 558           2661.49272859013 
 559           2583.28559350163 
 560           2515.85255113758 
 561           2434.75582270527 
 562           2374.80875273616 
 563           2342.60751721299 
 564           2315.55365355567 
 565           2310.47091002043 
 566           2322.57318374118 
 567           2327.52470591297 
 568           2307.72870354505 
 569           2292.26451055117 
 570           2288.82010511689 
 571           2278.82004773807 
 572           2233.98217683316 
 573           2136.71817897272 
 574           2054.54032675039 
 575           2057.86852762997 
 576           2094.82782832828 
 577           2145.87263276081 
 578           2175.23283613217 
 579           2153.55479890966 
 580           2151.56051826421 
 581           2156.87653378471 
 582           2141.1203349831 
 583           2112.8620969782 
 584           2064.71866826849 
 585           2036.71057188978 
 586           2060.55064636776 
 587           2102.01195624227 
 588           2119.98410005639 
 589           2083.2634313616 
 590           2028.33306195051 
 591           2070.45921225566 
 592           2110.08413130712 
 593           2120.02001593593 
 594           2150.37951864581 
 595           2104.51702944365 
 596           2018.03916352785 
 597           1957.88911115876 
 598           1938.53771259519 
 599           1951.77554634568 
 600           2016.50243549576 
 601           2088.42070048374 
 602           2065.6407951874 
 603           2031.59056080168 
 604           2034.36145986816 
 605           2055.60136601241 
 606           2059.70774077669 
 607           2036.69383100814 
 608           1979.454169585 
 609           1905.65764743989 
 610           1870.70576840042 
 611           1843.68701627161 
 612           1817.81044316745 
 613           1814.82677521753 
 614           1819.51599178505 
 615           1865.39396352411 
 616           1896.7080195163 
 617           1842.50193313666 
 618           1853.76956889208 
 619           1868.26879636125 
 620           1894.31977987491 
 621           2026.07401501252 
 622           2012.76633635029 
 623           1933.20316000062 
 624           1937.04997912028 
 625           1982.68217648879 
 626           1998.76723065802 
 627           2013.34597851814 
 628           2028.87943811286 
 629           1978.41268821445 
 630           1992.41091543601 
 631           2056.83987793207 
 632           2070.8199510227 
 633           2023.946629751 
 634           2008.16859163516 
 635           2013.87178341203 
 636           1995.77305464192 
 637           1995.78812298757 
 638           2012.81188385229 
 639           2019.73318680435 
 640           2013.78886228716 
 641           2035.66803367029 
 642           2043.96539422238 
 643           2048.06696904815 
 644           2063.83633616133 
 645           2017.67366576855 
 646           1985.26843933961 
 647           1970.17306056567 
 648           1940.42175289608 
 649           1991.74863179188 
 650           2029.8835078425 
 651           2022.59849669681 
 652           2041.4276756749 
 653           2093.1940520815 
 654           2101.9003618061 
 655           2079.15536261521 
 656           2069.42587244063 
 657           1977.88740962035 
 658           1924.39200471613 
 659           1961.74206953779 
 660           2008.5398826139 
 661           2033.68833787781 
 662           2019.6133862461 
 663           1994.78966862537 
 664           1994.7088111342 
 665           1988.88675142 
 666           2057.88131269722 
 667           2141.42375686381 
 668           2118.86969885601 
 669           2129.30279388243 
 670           2091.78126624248 
 671           2017.3951038292 
 672           2026.07132783966 
 673           2057.31524311321 
 674           2113.54216975329 
 675           2168.10352632291 
 676           2174.13897265852 
 677           2173.36725181129 
 678           2174.89647802493 
 679           2168.62712283827 
 680           2160.90755896748 
 681           2181.90349244632 
 682           2176.01454181235 
 683           2127.85204614091 
 684           2092.47680548846 
 685           2114.94764011877 
 686           2128.81768586703 
 687           2137.59999985566 
 688           2193.37637682779 
 689           2261.72176833814 
 690           2299.0025631025 
 691           2309.26086790548 
 692           2324.68496428874 
 693           2346.95750474433 
 694           2319.13292092132 
 695           2243.79120095325 
 696           2208.00978204562 
 697           2293.71631168976 
 698           2369.35166285963 
 699           2421.61843382039 
 700           2483.4625352024 
 701           2508.9739752762 
 702           2577.53271131163 
 703           2692.65668918549 
 704           2787.57952762484 
 705           2813.04720556338 
 706           2797.72411608205 
 707           2798.34573454035 
 708           2838.284354514 
 709           2893.08987206336 
 710           2945.23281670108 
 711           2991.49118037449 
 712           3046.84885139751 
 713           3131.20568738927 
 714           3237.55660016508 
 715           3330.28863157881 
 716           3435.63411490114 
 717           3602.20108573533 
 718           3770.68962294506 
 719           3883.9239653822 
 720           3929.55692641229 
 721           3948.92904997604 
 722           4005.05251423069 
 723           4074.86126814457 
 724           4158.37675928866 
 725           4219.60316357591 
 726           4158.31748024044 
 727           4083.07796806791 
 728           4002.97330042708 
 729           3945.92393813653 
 730           4039.15322455155 
 731           4211.71851058471 
 732           4372.90874290997 
 733           4495.78985489576 
 734           4603.35162129767 
 735           4702.18662147351 
 736           4855.68274602703 
 737           5038.55111707733 
 738           5154.43583946289 
 739           5193.78462972964 
 740           5161.37946602621 
 741           5126.92786357872 
 742           5127.15529105176 
 743           5082.26997729679 
 744           5034.18802964798 
 745           4986.31376245656 
 746           4913.3635873241 
 747           4829.79030637727 
 748           4778.65453859451 
 749           4722.41254955643 
 750           4663.05049954307 
 751           4649.95879615003 
 752           4621.22711687195 
 753           4568.8946272883 
 754           4527.83020737019 
 755           4531.58254692123 
 756           4577.00060599574 
 757           4618.52950453858 
 758           4683.35068118055 
 759           4750.95759921488 
 760           4729.43845181973 
 761           4818.1620290007 
 762           4937.02719704454 
 763           5032.58670276641 
 764           5219.93527082068 
 765           5405.12171106758 
 766           5599.41149052433 
 767           5782.27321077719 
 768           5943.07490013526 
 769           6204.72632859574 
 770           6486.3274559653 
 771           6775.25810809325 
 772           7041.35143077736 
 773           7166.56514202658 
 774           7263.13608592098 
 775           7345.89146510936 
 776           7439.12089562669 
 777           7595.21755699967 
 778           7725.58839255641 
 779           7823.82965996298 
 780           7854.94409203685 
 781           7797.82426482233 
 782           7734.30905337181 
 783           7681.17881313704 
 784           7585.00616520485 
 785           7474.30582792943 
 786           7440.09510593028 
 787           7389.2704055588 
 788           7408.97494914609 
 789           7515.95604500819 
 790           7609.17208364919 
 791           7646.92710169256 
 792           7620.55513187099 
 793           7603.75057108301 
 794           7547.14076437214 
 795           7291.09515248812 
 796           7015.93625633016 
 797           6749.92590154777 
 798           6506.57784140352 
 799           6309.83724478441 
 800           6080.63394731552 
 801           5907.74152334394 
 802           5759.0278479423 
 803           5628.28065688285 
 804           5623.65551420339 
 805           5627.3212164717 
 806           5715.77770884219 
 807           5943.50136578454 
 808           6246.70382718843 
 809           6574.42223839013 
 810           6876.02614779316 
 811           7205.76545520041 
 812           7568.21126701364 
 813           7920.58906523988 
 814           8479.22247939771 
 815           9074.91167825541 
 816           9716.47361758663 
 817           10529.7567109346 
 818           11316.131188001 
 819           12159.2545983427 
 820           13073.7150264201 
 821           13950.0622578455 
 822           14701.0690603216 
 823           15397.7497672258 
 824           16131.2214889768 
 825           16756.7224968577 
 826           17189.6841188042 
 827           17653.2270420965 
 828           18049.1647034358 
 829           18494.7967171381 
 830           19066.1538256093 
 831           19711.0632203191 
 832           20467.4851318621 
 833           21008.0785076138 
 834           21310.2638974755 
 835           21520.4420593994 
 836           21600.7645399591 
 837           21486.911910361 
 838           21316.2626500606 
 839           21100.0254446814 
 840           20756.6298854089 
 841           20305.7786286992 
 842           19594.824156437 
 843           18818.8236359653 
 844           18010.3509154763 
 845           16986.2389282883 
 846           15968.160854234 
 847           15124.8801915354 
 848           14463.1451032619 
 849           13937.8079538376 
 850           13544.8927315005 
 851           13265.1382527238 
 852           13034.7556930872 
 853           12920.5862087178 
 854           12958.8887137617 
 855           13011.0824880064 
 856           13151.9927801019 
 857           13393.9948602799 
 858           13648.7031881011 
 859           13915.4766782353 
 860           14395.5868938046 
 861           15062.4270559093 
 862           15682.8525862062 
 863           16197.8734637273 
 864           16784.828739673 
 865           17471.4695208237 
 866           18106.394044527 
 867           18699.18086032 
 868           19120.9860220739 
 869           19100.2872853877 
 870           18897.0719718836 
 871           18582.3844738025 
 872           18133.5102744997 
 873           17581.0191910723 
 874           17038.2788849519 
 875           16618.0345133991 
 876           16130.7204221306 
 877           15915.3161885141 
 878           16189.0071989473 
 879           16384.0091284556 
 880           16844.3908586958 
 881           17404.4604533003 
 882           18026.4582871542 
 883           18873.2444178267 
 884           19698.7501396718 
 885           20265.2158196087 
 886           20775.7128977519 
 887           21238.4377764635 
 888           21463.5272723338 
 889           21599.6989493837 
 890           21635.3794639559 
 891           21738.4988912472 
 892           21974.3485351833 
 893           22254.705916245 
 894           22592.0130600186 
 895           22754.7015029744 
 896           22490.0095813148 
 897           21795.9415522031 
 898           20882.4115382815 
 899           19833.9082150129 
 900           18466.3033214713 
 901           16941.2768151544 
 902           15519.021271372 
 903           14169.7329147035 
 904           12768.0466215871 
 905           11914.8723326548 
 906           11279.7059105179 
 907           10645.7709727098 
 908           10354.8568203919 
 909           10224.4722827059 
 910           10238.0670104658 
 911           10391.9648019591 
 912           10658.0774173214 
 913           10974.9183611787 
 914           11209.4168629622 
 915           11274.3724150811 
 916           11182.0895697735 
 917           11036.3754153249 
 918           10895.8671875003 
 919           10679.4421603011 
 920           10443.4600367468 
 921           10205.6530393431 
 922           9939.64855626147 
 923           9665.12054675938 
 924           9477.74026435522 
 925           9415.20653072855 
 926           9440.22423656151 
 927           9444.48735180367 
 928           9389.47769463347 
 929           9358.22884705725 
 930           9268.8830586878 
 931           9232.01723020591 
 932           9219.6011364273 
 933           9116.97315168465 
 934           8945.39481250404 
 935           8668.05052362705 
 936           8487.74487828656 
 937           8390.67775311639 
 938           8220.18532201299 
 939           7947.89160801146 
 940           7587.5675673371 
 941           7322.14464817036 
 942           7257.51484046608 
 943           7227.71146225064 
 944           7036.00391619404 
 945           6854.16333524426 
 946           6651.89519100439 
 947           6539.55390486615 
 948           6515.50213502734 
 949           6449.92717488771 
 950           6418.24619317151 
 951           6456.39197175128 
 952           6487.11872142448 
 953           6507.52994654641 
 954           6518.97918233593 
 955           6450.95420190203 
 956           6457.87918295738 
 957           6462.60808884191 
 958           6469.34136355049 
 959           6579.12048567131 
 960           6785.96011474813 
 961           6993.37282992637 
 962           7246.98642592718 
 963           7414.81971748992 
 964           7494.82682693131 
 965           7611.89941177554 
 966           7621.64511143255 
 967           7500.19515234993 
 968           7286.96307086195 
 969           6992.18331696558 
 970           6648.65250205225 
 971           6343.47864319164 
 972           6072.97325920414 
 973           5866.45810117241 
 974           5823.98610457678 
 975           5837.93986808743 
 976           5698.834356212 
 977           5561.20172123148 
 978           5431.76035552103 
 979           5372.33677482623 
 980           5436.64175552175 
 981           5550.08169284892 
 982           5589.67211873969 
 983           5616.45391304217 
 984           5664.7842103769 
 985           5709.9924817938 
 986           5786.5819788802 
 987           5958.7350171461 
 988           6151.03636833876 
 989           6354.59663586431 
 990           6556.21260122141 
 991           6712.04940763235 
 992           6816.42202218025 
 993           6946.75592696306 
 994           7160.22466332813 
 995           7409.85603974223 
 996           7687.16935949981 
 997           7998.51221761097 
 998           8308.65921449287 
 999           8614.59000546506 
 1000          9021.05995029294 
 1001          9434.40171582769 
 1002          9850.54209602974 
 1003          10344.8060723541 
 1004          10869.0006620122 
 1005          11368.6452071355 
 1006          11889.1765580259 
 1007          12391.3772557926 
 1008          12885.8121487269 
 1009          13357.3218149378 
 1010          13675.4256214101 
 1011          14011.2845556601 
 1012          14165.480478135 
 1013          14136.1737072968 
 1014          14035.0798356301 
 1015          13869.634841269 
 1016          13684.8823805179 
 1017          13376.2350823054 
 1018          13216.7295514279 
 1019          13253.5105102072 
 1020          13370.1857922896 
 1021          13567.955839236 
 1022          13756.7964313679 
 1023          14244.2056959402 
 1024          14946.431210717 
 1025          15744.3168113753 
 1026          16600.3543820269 
 1027          17403.1904014342 
 1028          18282.3036357803 
 1029          19423.3846658666 
 1030          20641.8095660689 
 1031          21653.5977245544 
 1032          22427.0410307014 
 1033          23067.7859351722 
 1034          23411.1493803656 
 1035          23356.5244028441 
 1036          23318.730705912 
 1037          22964.4412048046 
 1038          21868.5177407899 
 1039          20866.1330240889 
 1040          19957.4872114838 
 1041          19259.5222447683 
 1042          18765.9596241915 
 1043          18349.9515958443 
 1044          18113.8235781535 
 1045          18316.9309234787 
 1046          18688.5691626934 
 1047          19239.7432743724 
 1048          19846.7605518484 
 1049          20400.7532242761 
 1050          20977.8880113911 
 1051          21629.6128339221 
 1052          22341.2481186199 
 1053          22982.323151209 
 1054          23625.2763684969 
 1055          24132.3339779272 
 1056          24275.0252541375 
 1057          24271.5360018386 
 1058          24285.023455297 
 1059          24180.9885574218 
 1060          24068.0659707667 
 1061          23994.1015707582 
 1062          23797.8733564677 
 1063          23465.2494771227 
 1064          23172.103447162 
 1065          22893.2842582838 
 1066          22568.2430637276 
 1067          22361.0491346598 
 1068          22410.9939167512 
 1069          22624.9638337762 
 1070          23018.741406489 
 1071          23430.264735783 
 1072          23831.7907758176 
 1073          24310.6722950196 
 1074          24715.6888901773 
 1075          24801.4499622331 
 1076          24786.8896787824 
 1077          24698.5695490636 
 1078          24256.5055479225 
 1079          23516.0288892055 
 1080          22729.4512003457 
 1081          21918.2434776327 
 1082          20988.302952466 
 1083          20038.0663805694 
 1084          19006.1700257162 
 1085          17964.0490503474 
 1086          16907.7943211968 
 1087          15806.3403898615 
 1088          14775.1801871842 
 1089          13727.4455130858 
 1090          12858.5305829279 
 1091          12075.4645385209 
 1092          11338.7843278298 
 1093          10679.9863977592 
 1094          9988.18650109042 
 1095          9287.63377832003 
 1096          8882.40226166047 
 1097          8656.15645507244 
 1098          8508.68559912883 
 1099          8477.44101537194 
 1100          8495.54474321708 
 1101          8449.67567205152 
 1102          8487.69164537683 
 1103          8474.91224517978 
 1104          8762.98638174211 
 1105          9238.4789087537 
 1106          9748.07831781145 
 1107          10500.0856767355 
 1108          11215.8043657786 
 1109          12279.5109471189 
 1110          13510.8590322967 
 1111          14739.5831063254 
 1112          15971.8156267537 
 1113          17198.6100941619 
 1114          18438.3754506903 
 1115          19715.9008025496 
 1116          20673.7452513859 
 1117          21554.0275978055 
 1118          22169.7561165038 
 1119          22159.6891527042 
 1120          21583.447451025 
 1121          20608.2648763541 
 1122          19509.119584931 
 1123          18353.9267047417 
 1124          17017.4677888445 
 1125          15591.7489283188 
 1126          14417.7440445265 
 1127          13537.8067396697 
 1128          12622.1328754398 
 1129          12006.6963132077 
 1130          11456.7138594812 
 1131          10886.5985221516 
 1132          10325.5921078812 
 1133          9845.12658499738 
 1134          9530.77597753603 
 1135          9208.6662312986 
 1136          8867.71259746555 
 1137          8534.20618560493 
 1138          8216.5430060331 
 1139          7918.71090633316 
 1140          7626.56182232084 
 1141          7305.61328745704 
 1142          6946.75260181239 
 1143          6576.29873913952 
 1144          6284.9704800062 
 1145          6012.41620898282 
 1146          5786.18128266745 
 1147          5657.46296035329 
 1148          5525.1185067926 
 1149          5365.62713787231 
 1150          5201.97877520522 
 1151          5069.37107293546 
 1152          4956.87514971755 
 1153          4853.01237648472 
 1154          4780.9694639606 
 1155          4731.66283249045 
 1156          4649.12032414122 
 1157          4594.37968853102 
 1158          4540.8154688736 
 1159          4524.82418173609 
 1160          4553.31759054256 
 1161          4591.3249360943 
 1162          4611.63701705152 
 1163          4579.40773500635 
 1164          4539.65415265262 
 1165          4616.16337547692 
 1166          4771.94066051775 
 1167          4933.43829755877 
 1168          5078.70533185359 
 1169          5142.08083937629 
 1170          5141.89739895354 
 1171          5373.42447490497 
 1172          5632.54780996351 
 1173          5839.82470229086 
 1174          5995.55472218875 
 1175          6102.20369191452 
 1176          6186.34644956664 
 1177          6272.38365087498 
 1178          6353.68429862505 
 1179          6435.92523964815 
 1180          6540.40297872304 
 1181          6527.59650403835 
 1182          6436.73519991587 
 1183          6378.64979540275 
 1184          6329.1433221028 
 1185          6254.03156116858 
 1186          6159.93309342192 
 1187          6101.06714189315 
 1188          5989.82891159105 
 1189          5893.74161497244 
 1190          5792.59167230768 
 1191          5635.39048624324 
 1192          5478.29662510826 
 1193          5280.35733304528 
 1194          5079.66291551683 
 1195          4936.49405463514 
 1196          4796.84795010252 
 1197          4757.34833449366 
 1198          4834.97463451163 
 1199          4927.9465106598 
 1200          5014.33633411151 
 1201          5068.14394068939 
 1202          5120.83332552152 
 1203          5119.58325619317 
 1204          5163.09892699481 
 1205          5233.39781627386 
 1206          5320.58202914831 
 1207          5441.59010191223 
 1208          5527.05325613365 
 1209          5631.30163549162 
 1210          5778.61177749409 
 1211          5985.46567310645 
 1212          6173.14135678421 
 1213          6288.58985757291 
 1214          6327.80456233587 
 1215          6306.52389359293 
 1216          6276.90188791981 
 1217          6238.77754686047 
 1218          6056.76223575387 
 1219          5921.7006662737 
 1220          5797.03593890451 
 1221          5677.81696864756 
 1222          5533.27636243173 
 1223          5347.74463499628 
 1224          5236.84356877089 
 1225          5188.76433171514 
 1226          5136.53332525924 
 1227          5071.18998363565 
 1228          5091.7152184256 
 1229          5176.64534494465 
 1230          5246.16414838544 
 1231          5330.94933025463 
 1232          5523.44289249349 
 1233          5813.72006460539 
 1234          6098.47799243009 
 1235          6329.23997509678 
 1236          6463.25702340155 
 1237          6672.95843018924 
 1238          6937.50356127138 
 1239          7103.81818680349 
 1240          7192.75244460928 
 1241          7296.66485157175 
 1242          7433.15863988433 
 1243          7655.78482579399 
 1244          7863.7908137091 
 1245          8032.55193266828 
 1246          8074.60332302558 
 1247          8058.95559665612 
 1248          8063.46077820098 
 1249          8060.89231925183 
 1250          8156.51153904854 
 1251          8348.36250766741 
 1252          8387.075659668 
 1253          8438.16997593364 
 1254          8602.5565937344 
 1255          8905.82898412211 
 1256          9126.6498527118 
 1257          9184.8353207095 
 1258          9306.75163098306 
 1259          9519.76347571387 
 1260          9754.71347054578 
 1261          9756.42887274194 
 1262          9727.69565915641 
 1263          9746.30029882344 
 1264          9826.80981912943 
 1265          9848.31858130084 
 1266          9773.91325962758 
 1267          9748.05686143241 
 1268          9785.21156929847 
 1269          9899.35001778212 
 1270          9977.73870933416 
 1271          9977.91808118754 
 1272          9972.52076119695 
 1273          10084.9072568548 
 1274          10469.3438589906 
 1275          11037.3754311932 
 1276          11585.0671487122 
 1277          12156.3228835815 
 1278          12815.4437201488 
 1279          13620.2721559461 
 1280          14431.7996892566 
 1281          15245.0532181858 
 1282          16068.1186817303 
 1283          16961.2776874748 
 1284          17931.4899861396 
 1285          18889.9263409906 
 1286          19848.7923561946 
 1287          20928.787513148 
 1288          22089.1804312968 
 1289          23214.1372666617 
 1290          24802.3114318686 
 1291          26805.8534859878 
 1292          28990.9411427746 
 1293          31091.8157778324 
 1294          32939.0788346894 
 1295          34665.7109494686 
 1296          36354.2885208883 
 1297          37687.6928604358 
 1298          38362.9828436736 
 1299          38400.202576585 
 1300          38016.1263534423 
 1301          37417.9291529577 
 1302          36877.5748298184 
 1303          35983.7714483582 
 1304          34391.1111965231 
 1305          32457.0579226878 
 1306          30458.2243963032 
 1307          28571.1439943361 
 1308          27006.4216527584 
 1309          25388.0250533912 
 1310          23797.8504337046 
 1311          22397.2853301611 
 1312          21068.7209336001 
 1313          19733.7772846964 
 1314          18519.1143752222 
 1315          17584.5910310258 
 1316          16953.9454757213 
 1317          16401.9679912415 
 1318          15644.5709135534 
 1319          14881.8844039275 
 1320          14164.2646116861 
 1321          13602.4621412186 
 1322          13008.2807559799 
 1323          12399.8915708616 
 1324          11813.7834782154 
 1325          11253.794478169 
 1326          10726.9743141434 
 1327          10244.4442320287 
 1328          9999.96415913671 
 1329          9709.87806171426 
 1330          9413.86013420413 
 1331          9091.89705545409 
 1332          8919.05365741707 
 1333          8845.11533468497 
 1334          8782.09801471303 
 1335          8709.20720631342 
 1336          8674.56333886266 
 1337          8746.52218337214 
 1338          8862.90710762552 
 1339          8970.92945858674 
 1340          9042.37110854705 
 1341          8837.43291008293 
 1342          8709.88728822424 
 1343          8605.37225892251 
 1344          8522.51149156008 
 1345          8378.98652775149 
 1346          8162.28305287979 
 1347          7944.57228033543 
 1348          7809.95503747516 
 1349          7820.38774511616 
 1350          7819.86901758923 
 1351          7724.52208713372 
 1352          7634.291129722 
 1353          7562.32475291503 
 1354          7483.30044244936 
 1355          7457.72185898732 
 1356          7473.09974360446 
 1357          7525.87733104082 
 1358          7646.19765413548 
 1359          7750.70848134145 
 1360          7816.0675850859 
 1361          7918.84539089396 
 1362          7989.85305931266 
 1363          8066.86391839111 
 1364          8182.70226662266 
 1365          8324.32362246089 
 1366          8328.10502778671 
 1367          8249.99131078776 
 1368          8252.02335078062 
 1369          8201.00021571476 
 1370          8121.15562776129 
 1371          8097.04443249385 
 1372          8040.84531984436 
 1373          7970.26252834448 
 1374          7901.01753789258 
 1375          7768.0289783501 
 1376          7770.39990234326 
 1377          8014.80652082615 
 1378          8032.00317265333 
 1379          7890.82217881519 
 1380          7612.54778747851 
 1381          7524.57657355976 
 1382          7529.72562428576 
 1383          7506.06499543738 
 1384          7431.30692901575 
 1385          7263.44766905185 
 1386          7107.61733654408 
 1387          6955.82850903348 
 1388          6841.1453000918 
 1389          6750.02190556446 
 1390          6745.05599443012 
 1391          6780.01901198303 
 1392          6811.71272398862 
 1393          6868.57330283704 
 1394          6996.47538672349 
 1395          7124.03783942479 
 1396          7198.47810554326 
 1397          7246.74302427474 
 1398          7285.74800395705 
 1399          7325.9602580704 
 1400          7373.37903070666 
 1401          7423.47653321301 
 1402          7537.75510842961 
 1403          7730.38755987287 
 1404          7908.3194845391 
 1405          8074.84862583878 
 1406          8291.23962119052 
 1407          8481.67880781791 
 1408          8710.17255511028 
 1409          8973.27563789691 
 1410          9174.36927682974 
 1411          9348.74193203394 
 1412          9622.88669461579 
 1413          10008.4601535155 
 1414          10386.5078402116 
 1415          10702.261804516 
 1416          11035.5590185239 
 1417          11446.2719144718 
 1418          11977.1449015998 
 1419          12618.9596822417 
 1420          13447.7825006643 
 1421          14340.999681047 
 1422          15469.7382585875 
 1423          16603.1691311234 
 1424          18015.015520385 
 1425          19785.9762862976 
 1426          22054.358115225 
 1427          24878.0506831543 
 1428          27988.4117971664 
 1429          31111.2901649109 
 1430          34393.5858368618 
 1431          38052.3787422701 
 1432          41326.5570145309 
 1433          44036.0060818905 
 1434          46294.3531959806 
 1435          48168.7114599486 
 1436          49505.8652112519 
 1437          50243.9780238613 
 1438          51042.6099879364 
 1439          50911.5628103671 
 1440          50109.2166489242 
 1441          49338.1086574424 
 1442          48728.80969444 
 1443          48222.8155820408 
 1444          47854.6316205033 
 1445          47659.5169559677 
 1446          47246.2333735948 
 1447          46475.9073550607 
 1448          45777.5169769482 
 1449          45250.8419586074 
 1450          45127.4737462693 
 1451          44981.1434727059 
 1452          45010.7497330909 
 1453          44982.3615103441 
 1454          45279.6994393245 
 1455          45134.8344049812 
 1456          44566.9823467327 
 1457          43685.2267965941 
 1458          42498.9919907108 
 1459          40996.3177938647 
 1460          39388.1117164033 
 1461          37840.8347092792 
 1462          36289.5159524586 
 1463          34761.7066273385 
 1464          33243.6684182027 
 1465          31720.6982112648 
 1466          30398.9647738381 
 1467          29333.3764734361 
 1468          28429.6011282536 
 1469          27457.3718746749 
 1470          26393.8851896107 
 1471          25559.2994162447 
 1472          25025.8082847099 
 1473          24678.1894897634 
 1474          24230.1405236086 
 1475          23796.4261598019 
 1476          23105.6059005515 
 1477          22340.691748483 
 1478          21436.8624823369 
 1479          20400.7997206676 
 1480          19397.279257094 
 1481          18382.9589617762 
 1482          17317.6386321599 
 1483          16330.671705261 
 1484          15391.1382895568 
 1485          14434.427634066 
 1486          13507.688633099 
 1487          12691.7435338955 
 1488          12033.4154660093 
 1489          11394.1067353898 
 1490          10913.2367197471 
 1491          10387.0122069421 
 1492          9933.19900095727 
 1493          9475.72834022999 
 1494          9105.27694809504 
 1495          8852.13413381794 
 1496          8667.57099994317 
 1497          8351.82260488008 
 1498          8027.96396602152 
 1499          7805.83092195269 
 1500          7552.6762594911 
 1501          7320.65187438575 
 1502          7177.37359516319 
 1503          7148.6566329556 
 1504          7068.68822487633 
 1505          6881.69108300806 
 1506          6605.60908163945 
 1507          6381.3488552627 
 1508          6294.25737255876 
 1509          6305.27957776124 
 1510          6335.45228439413 
 1511          6254.03979312754 
 1512          6083.15478510993 
 1513          5931.56171267981 
 1514          5891.93520167453 
 1515          5833.79743166063 
 1516          5800.49043005191 
 1517          5641.25538074577 
 1518          5473.80394877598 
 1519          5427.81704269679 
 1520          5349.4546484618 
 1521          5341.48401661849 
 1522          5216.56141797902 
 1523          5086.74428486381 
 1524          5068.73026055764 
 1525          5039.04894206542 
 1526          5007.22776547387 
 1527          4959.36126740785 
 1528          4852.91712095415 
 1529          4690.56306925287 
 1530          4585.61919605528 
 1531          4469.40867927953 
 1532          4535.64718321893 
 1533          4686.74239514972 
 1534          4782.88225337333 
 1535          4830.64899258029 
 1536          4738.31434451317 
 1537          4620.88963130237 
 1538          4638.90265849016 
 1539          4635.47285052014 
 1540          4539.52308275857 
 1541          4391.56163256935 
 1542          4301.83411784656 
 1543          4310.02299110792 
 1544          4282.81699965214 
 1545          4276.31726419243 
 1546          4250.38078631083 
 1547          4268.87371207957 
 1548          4286.17592086683 
 1549          4172.81743534044 
 1550          4078.22451951059 
 1551          4023.79895491792 
 1552          4002.34861233281 
 1553          4030.51370847806 
 1554          4043.49769816081 
 1555          4082.41968056289 
 1556          4007.54337115224 
 1557          3812.52217654997 
 1558          3757.53121775166 
 1559          3785.83378250546 
 1560          3890.22741506842 
 1561          3711.89756086297 
 1562          3642.10481134985 
 1563          3562.57001676144 
 1564          3677.10915305356 
 1565          3755.24599772327 
 1566          3835.02333134215 
 1567          3776.53752994989 
 1568          3658.71713912148 
 1569          3574.62286344701 
 1570          3419.05083150961 
 1571          3422.16704764718 
 1572          3482.11819324511 
 1573          3487.89478683571 
 1574          3469.72881102578 
 1575          3473.02696986518 
 1576          3469.06454053854 
 1577          3482.43197031226 
 1578          3522.73858710929 
 1579          3458.03065018325 
 1580          3395.25337153309 
 1581          3436.7799024087 
 1582          3571.60561733718 
 1583          3593.2466996578 
 1584          3463.91484573848 
 1585          3384.3556836053 
 1586          3342.05910735414 
 1587          3307.03336994987 
 1588          3319.74756227189 
 1589          3336.3392406908 
 1590          3236.91206338818 
 1591          3177.93276280727 
 1592          3150.76329393612 
 1593          3118.57408025191 
 1594          3122.50121812979 
 1595          3179.43275821478 
 1596          3235.3089066712 
 1597          3246.58129652955 
 1598          3187.32015984771 
 1599          3081.48182202316 
 1600          3087.20560355637 
 1601          3155.61711472645 
 1602          3228.89132403477 
 1603          3222.51496953153 
 1604          3106.98499199994 
 1605          3004.52791816313 
 1606          2890.71283895979 
 1607          2802.43974031616 
 1608          2879.80785545585 
 1609          3017.73262014455 
 1610          3039.182083489 
 1611          2948.02385577451 
 1612          2903.05663561736 
 1613          2984.92919942853 
 1614          3026.70944215266 
 1615          2928.7580858919 
 1616          2879.7871641591 
 1617          2919.12874112006 
 1618          2919.54504741993 
 1619          2939.95125781611 
 1620          2954.93975244953 
 1621          2977.28369922377 
 1622          2928.7582603366 
 1623          2876.20648882202 
 1624          2863.2557350081 
 1625          2937.22173424757 
 1626          3018.31724696509 
 1627          2969.71548706209 
 1628          2914.66312256553 
 1629          2801.6689534245 
 1630          2706.66739662317 
 1631          2684.04699979219 
 1632          2789.01690588825 
 1633          2944.50548181682 
 1634          2944.4747323048 
 1635          2818.45659988163 
 1636          2757.79451463092 
 1637          2798.61413661941 
 1638          2827.47970047376 
 1639          2851.08059749436 
 1640          2850.71287874359 
 1641          2816.56483498976 
 1642          2796.23704160855 
 1643          2786.17615321032 
 1644          2753.7801928465 
 1645          2758.23302428196 
 1646          2710.97214812694 
 1647          2690.28474300442 
 1648          2687.36207366008 
 1649          2726.13098562765 
 1650          2769.4558191587 
 1651          2783.71748727113 
 1652          2841.48090380723 
 1653          2926.28291941124 
 1654          2937.78790798295 
 1655          2908.54811256515 
 1656          2769.71940521586 
 1657          2713.28379189697 
 1658          2759.27471097669 
 1659          2770.19003174221 
 1660          2743.108209216 
 1661          2671.09626685334 
 1662          2806.6456543194 
 1663          2981.16326349957 
 1664          3023.46920188386 
 1665          2899.99573814808 
 1666          2714.32992289228 
 1667          2733.33274062015 
 1668          2778.97104338398 
 1669          2920.81275567128 
 1670          2969.12242610249 
 1671          3039.27571743192 
 1672          2974.24287723079 
 1673          2851.74556564977 
 1674          2708.65809661546 
 1675          2827.37152228427 
 1676          2897.69939494275 
 1677          2929.30846201983 
 1678          2943.37628362532 
 1679          2944.66151262736 
 1680          2811.30503674564 
 1681          2712.2622875578 
 1682          2773.1536001594 
 1683          2748.09808980972 
 1684          2642.60940606304 
 1685          2567.62374836156 
 1686          2655.45332424739 
 1687          2805.74254606018 
 1688          2901.40178740892 
 1689          2805.05012728121 
 1690          2768.1550428793 
 1691          2766.03539221454 
 1692          2806.18500611982 
 1693          2813.36884576931 
 1694          2781.21598717444 
 1695          2755.56847460569 
 1696          2732.879785488 
 1697          2753.27736787489 
 1698          2760.30641607004 
 1699          2740.37131249646 
 1700          2783.27103593741 
 1701          2774.74488295884 
 1702          2752.19787558565 
 1703          2788.73678187789 
 1704          2835.81039812831 
 1705          2870.20528819427 
 1706          2916.99422584245 
 1707          2711.48681721799 
 1708          2566.18918967991 
 1709          2571.82279927421 
 1710          2551.99533492574 
 1711          2596.01219051117 
 1712          2645.19140767169 
 1713          2693.05589590509 
 1714          2541.60092423768 
 1715          2401.6310841976 
 1716          2407.2856321847 
 1717          2547.40010334063 
 1718          2522.75752017056 
 1719          2459.61823955967 
 1720          2385.71491983312 
 1721          2398.08377670189 
 1722          2420.02725509248 
 1723          2386.50383367263 
 1724          2381.79396060075 
 1725          2430.56687257482 
 1726          2465.87027654059 
 1727          2475.39388933794 
 1728          2481.45871635885 
 1729          2482.20597490925 
 1730          2567.8907291201 
 1731          2518.70143354721 
 1732          2465.60387667043 
 1733          2408.1130972592 
 1734          2363.59879484808 
 1735          2313.21818030629 
 1736          2222.00915170795 
 1737          2131.3950081421 
 1738          2169.35049920776 
 1739          2254.42977762533 
 1740          2269.71846088828 
 1741          2196.62273627714 
 1742          2209.03482958412 
 1743          2285.88323352818 
 1744          2307.17840717346 
 1745          2221.73690358125 
 1746          2230.62596358319 
 1747          2274.2527579167 
 1748          2265.63365619189 
 1749          2177.81017465858 
 1750          2124.31825560068 
 1751          2166.99430227887 
 1752          2206.1710439166 
 1753          2222.33231140279 
 1754          2228.93515189742 
 1755          2234.44869816533 
 1756          2244.63672917525 
 1757          2198.20393919665 
 1758          2104.64191469439 
 1759          2122.33023342593 
 1760          2194.62879146194 
 1761          2190.58440837917 
 1762          2113.95260066968 
 1763          2068.93295027387 
 1764          2080.41980415122 
 1765          2048.93074923014 
 1766          2012.89119735072 
 1767          1960.53664698714 
 1768          1950.36286301019 
 1769          1962.2884552813 
 1770          2082.26139678045 
 1771          2117.99926388245 
 1772          2043.54120008091 
 1773          1983.01322110118 
 1774          1947.47056733189 
 1775          1867.01175300519 
 1776          1820.9661167743 
 1777          1806.15860967313 
 1778          1920.75808704431 
 1779          1978.69153669878 
 1780          2038.45038890319 
 1781          2061.18919008696 
 1782          2039.799228312 
 1783          1982.43631540831 
 1784          1957.18220678457 
 1785          1954.2355411753 
 1786          1983.68934265349 
 1787          2052.05040891162 
 1788          2058.51912692035 
 1789          2030.81679511099 
 1790          2037.90441140868 
 1791          2079.47258244817 
 1792          2086.29428662763 
 1793          2090.21083871354 
 1794          2059.31061829192 
 1795          2017.26882075289 
 1796          1872.73880933648 
 1797          1844.31364815482 
 1798          1841.19217633958 
 1799          1894.67244182602 
 1800          1912.55013482224 
 1801          1911.4730279385 
 1802          1918.71190679307 
 1803          1904.68076289353 
 1804          1936.14464761732 
 1805          1873.82057204296 
 1806          1785.89972757772 
 1807          1770.04593538174 
 1808          1750.48381872869 
 1809          1777.20144794173 
 1810          1792.46014304725 
 1811          1830.2681373545 
 1812          1915.78447571901 
 1813          1966.76602959698 
 1814          1933.30917066704 
 1815          1864.10659783719 
 1816          1815.0419784251 
 1817          1870.39651134088 
 1818          1881.97140107595 
 1819          1862.85504932002 
 1820          1824.58534826322 
 1821          1806.12238834147 
 1822          1877.43316132927 
 1823          1883.35001332325 
 1824          1787.59398811574 
 1825          1811.74371377379 
 1826          1850.53853489782 
 1827          1897.80271348423 
 1828          1840.57084191934 
 1829          1720.0652605825 
 1830          1731.91354408874 
 1831          1743.60358958493 
 1832          1801.00827252629 
 1833          1786.58940723981 
 1834          1787.1596483261 
 1835          1731.36228711523 
 1836          1613.84326517775 
 1837          1669.32107447827 
 1838          1823.37127260161 
 1839          1906.78002074737 
 1840          1876.1838456745 
 1841          1855.44107251431 
 1842          1809.5884456295 
 1843          1731.61031779126 
 1844          1653.33184618832 
 1845          1656.56640790704 
 1846          1736.24779979621 
 1847          1819.94035550651 
 1848          1831.57463207201 
 1849          1836.01652041492 
 1850          1881.61574367548 
 1851          1827.78498839024 
 1852          1781.3765287034 
 1853          1736.82033786148 
 1854          1707.27284440899 
 1855          1732.60347361872 
 1856          1770.58118632068 
 1857          1703.41213111711 
 1858          1665.42530800414 
 1859          1518.33443424223 
 1860          1537.8083352213 
 1861          1637.29631510278 
 1862          1696.27583647952 
 1863          1681.86258028515 
 1864          1677.56330292913 
 1865          1697.87823440875 
 1866          1774.22651486069 
 1867          1785.97683444248 
 1868          1834.39534474002 
 1869          1745.39715428977 
 1870          1680.84498051363 
 1871          1684.38757343226 
 1872          1732.84462475347 
 1873          1805.10460469655 
 1874          1699.46892307841 
 1875          1654.53389153631 
 1876          1612.55326681348 
 1877          1602.44289855937 
 1878          1579.07686426586 
 1879          1605.74954643471 
 1880          1629.57907434976 
 1881          1621.17281755826 
 1882          1549.0017781811 
 1883          1467.49933739664 
 1884          1504.7195490756 
 1885          1633.56620659292 
 1886          1800.81292988102 
 1887          1778.08661316331 
 1888          1757.23841677765 
 1889          1652.25221035764 
 1890          1701.96073043616 
 1891          1703.33704635468 
 1892          1713.41148363825 
 1893          1678.23426858964 
 1894          1712.82349416256 
 1895          1686.18677499687 
 1896          1563.08326655622 
 1897          1535.93332055347 
 1898          1548.67620668403 
 1899          1527.17030308594 
 1900          1509.66438391204 
 1901          1448.21284455656 
 1902          1454.1911206591 
 1903          1559.19763880708 
 1904          1547.44878008583 
 1905          1480.52775885903 
 1906          1445.57669856193 
 1907          1476.22583544287 
 1908          1573.09113869057 
 1909          1611.6200833091 
 1910          1656.09057295109 
 1911          1655.78698078096 
 1912          1616.86649580361 
 1913          1567.96469044076 
 1914          1584.77079301078 
 1915          1609.91322612722 
 1916          1543.7459473974 
 1917          1447.36615726433 
 1918          1484.43858808936 
 1919          1543.6210914756 
 1920          1596.61215472771 
 1921          1641.04144374671 
 1922          1610.84731154158 
 1923          1559.95874373518 
 1924          1516.17902757401 
 1925          1483.40658829408 
 1926          1616.72268025617 
 1927          1615.39782756811 
 1928          1632.40298576675 
 1929          1551.45140617172 
 1930          1429.72644323501 
 1931          1436.85660554114 
 1932          1454.63253599704 
 1933          1480.05031023949 
 1934          1415.62434951014 
 1935          1447.53534136909 
 1936          1506.51889473961 
 1937          1493.04918883906 
 1938          1461.04860405007 
 1939          1384.70293651993 
 1940          1412.36156890175 
 1941          1508.08795100793 
 1942          1557.98923358304 
 1943          1575.81273103578 
 1944          1557.59679530814 
 1945          1584.16241915665 
 1946          1500.71332276306 
 1947          1472.06899401063 
 1948          1465.76454416839 
 1949          1410.19569145115 
 1950          1363.10987268662 
 1951          1346.48018847982 
 1952          1375.20577435776 
 1953          1393.67346031585 
 1954          1468.52388532995 
 1955          1422.7022241041 
 1956          1298.13488624418 
 1957          1375.8638521535 
 1958          1456.08527694332 
 1959          1464.18590318619 
 1960          1363.20786640382 
 1961          1400.32031376458 
 1962          1405.81365790154 
 1963          1429.08610668162 
 1964          1352.4307588076 
 1965          1314.29884149293 
 1966          1296.4148439785 
 1967          1378.32517077753 
 1968          1382.73378754531 
 1969          1354.97062513125 
 1970          1384.48179679693 
 1971          1251.09210188785 
 1972          1263.62973839686 
 1973          1340.05342565282 
 1974          1476.11103844676 
 1975          1309.38746641051 
 1976          1181.07056054844 
 1977          1229.05072339332 
 1978          1328.08233367931 
 1979          1353.21138111425 
 1980          1323.60381805392 
 1981          1331.87712924361 
 1982          1358.65156629248 
 1983          1450.02645865901 
 1984          1391.01906198351 
 1985          1305.63646058972 
 1986          1235.88859829713 
 1987          1241.94858803743 
 1988          1147.22788986895 
 1989          1174.14071749094 
 1990          1175.49016421546 
 1991          1181.38299405413 
 1992          1203.45063198289 
 1993          1264.78097403965 
 1994          1350.65791622004 
 1995          1235.38488815421 
 1996          1147.63908882485 
 1997          1117.66936178443 
 1998          1158.64312708016 
 1999          1162.44872871685 
 2000          1162.88109718994 
 2001          1236.67821143215 
 2002          1314.39846739193 
 2003          1301.28189959189 
 2004          1318.94797278448 
 2005          1319.2053583192 
 2006          1334.01755134755 
 2007          1347.3740883481 
 2008          1314.80362415194 
 2009          1291.36026721045 
 2010          1230.03183695564 
 2011          1148.65408088365 
 2012          1160.69920876856 
 2013          1183.21882726045 
 2014          1137.63186009608 
 2015          1043.04516572413 
 2016          1030.45415104798 
 2017          1086.11742435307 
 2018          1171.53210951551 
 2019          1162.16487363185 
 2020          1137.99751882805 
 2021          1186.67500723247 
 2022          1212.27059498174 
 2023          1211.71283742687 
 2024          1175.69422380038 
 2025          1154.31166579155 
 2026          1159.58035811531 
 2027          1205.1459290285 
 2028          1226.49128760904 
 2029          1219.93024354934 
 2030          1176.17790293945 
 2031          1186.19703865643 
 2032          1260.55521983316 
 2033          1279.24394751846 
 2034          1263.94463261951 
 2035          1170.4634336795 
 2036          1118.72894582552 
 2037          1073.00700632274 
 2038          1107.09711014051 
 2039          1206.21945865688 
 2040          1222.01310124406 
 2041          1177.88770003983 
 2042          1078.08360891706 
 2043          1026.74018613753 
 2044          985.640607925516 
 2045          1026.65566327369 
 2046          1057.29761236617 
 2047          1092.89312719513 
 2048          1096.13426464911 
 2049          1177.72856770609 
 2050          1174.67854289984 
 2051          1151.95547267828 
 2052          1050.25617349123 
 2053          997.054789654292 
 2054          935.047024852758 
 2055          1077.51365410477 
 2056          1154.26524086953 
 2057          1140.69722782385 
 2058          1040.42337637625 
 2059          1067.76032389339 
 2060          1056.15435737019 
 2061          1013.9119038142 
 2062          957.016618369134 
 2063          978.024366386348 
 2064          1009.04103051531 
 2065          1019.5306150085 
 2066          1036.07051360254 
 2067          1006.06667169818 
 2068          991.798405541786 
 2069          985.051610140316 
 2070          997.856703941042 
 2071          1082.83282872553 
 2072          1075.69513122291 
 2073          1069.34048528595 
 2074          1087.53478886343 
 2075          1126.39802440471 
 2076          1060.86255134163 
 2077          990.841942083021 
 2078          988.976089736286 
 2079          1089.55682030134 
 2080          1044.84216361895 
 2081          982.40324164366 
 2082          1045.45621454543 
 2083          1079.11763171493 
 2084          1086.00257053418 
 2085          1042.3509536179 
 2086          1061.87871673401 
 2087          1066.97857795268 
 2088          1029.207322774 
 2089          950.067078016033 
 2090          961.604068782909 
 2091          1010.23097324568 
 2092          1005.9026063567 
 2093          1023.1822753617 
 2094          967.642464114645 
 2095          963.444476920849 
 2096          1021.93123053195 
 2097          1123.05234893346 
 2098          1045.86323341287 
 2099          1021.80021826605 
 2100          1044.25118502582 
 2101          1050.35476382769 
 2102          954.775093633579 
 2103          987.246478725561 
 2104          1126.19434905784 
 2105          1164.94251392153 
 2106          1108.37112461241 
 2107          1073.84846688802 
 2108          1016.05079378786 
 2109          1052.55727562855 
 2110          1084.05181626036 
 2111          1112.73480034518 
 2112          1066.18752859154 
 2113          1033.38569662346 
 2114          992.996412716608 
 2115          973.02998801265 
 2116          989.635746481534 
 2117          975.770848904669 
 2118          990.125944541978 
 2119          978.291661929376 
 2120          991.736411088314 
 2121          985.340846720319 
 2122          904.484860237609 
 2123          958.073282725392 
 2124          1063.57627421367 
 2125          1037.94218723373 
 2126          992.519344082284 
 2127          990.191587582872 
 2128          984.113075886943 
 2129          935.919600511449 
 2130          964.956714555669 
 2131          990.362169716104 
 2132          957.722100124518 
 2133          972.249604593951 
 2134          944.975633308438 
 2135          939.680523078909 
 2136          859.719909614354 
 2137          868.257151312616 
 2138          871.929453048749 
 2139          939.46775311313 
 2140          922.994575738175 
 2141          917.30893416229 
 2142          913.876588566452 
 2143          830.935274986252 
 2144          841.491029662609 
 2145          881.720618669652 
 2146          926.321944016118 
 2147          1012.35417600503 
 2148          1079.55432685693 
 2149          1113.40212189674 
 2150          1021.43606194079 
 2151          911.015314159341 
 2152          884.020197979879 
 2153          898.137988378454 
 2154          941.940601152834 
 2155          1007.2133296296 
 2156          980.947697375077 
 2157          943.930472326815 
 2158          934.550128126157 
 2159          964.145092079132 
 2160          980.337540602332 
 2161          921.867306884892 
 2162          894.363395655733 
 2163          855.426942934799 
 2164          928.669300703857 
 2165          981.169182474616 
 2166          1013.50115730159 
 2167          1073.77834444768 
 2168          1122.14747701886 
 2169          1076.95364381571 
 2170          1007.21811150777 
 2171          933.585756547387 
 2172          975.944684199304 
 2173          1025.76680760654 
 2174          961.146486861432 
 2175          969.831778149583 
 2176          1015.03755865213 
 2177          1054.50668772407 
 2178          1067.03293492323 
 2179          1072.09597940291 
 2180          1079.28634992005 
 2181          1024.48145572389 
 2182          1010.01178900372 
 2183          1118.59729763152 
 2184          1231.32605630659 
 2185          1232.61286406454 
 2186          1269.31879076754 
 2187          1298.0566163358 
 2188          1292.01706092832 
 2189          1223.4966214216 
 2190          1177.05470596827 
 2191          1234.64382000798 
 2192          1211.44657436663 
 2193          1195.32748581179 
 2194          1218.83603483587 
 2195          1113.13972279247 
 2196          1039.07537022776 
 2197          1073.24575281435 
 2198          1180.36187720493 
 2199          1170.13800661635 
 2200          1134.33152118041 
 2201          1088.35120191093 
 2202          1015.88653368844 
 2203          970.073265163648 
 2204          1025.63713803855 
 2205          1043.67388336695 
 2206          929.425850006799 
 2207          857.498968480745 
 2208          870.94465563906 
 2209          893.187597788867 
 2210          883.293802429667 
 2211          863.834045150234 
 2212          817.844448955488 
 2213          839.559792955137 
 2214          905.988050659998 
 2215          988.832193159117 
 2216          1075.54185798966 
 2217          994.266800638822 
 2218          955.12280029347 
 2219          980.967903029913 
 2220          1079.63306344878 
 2221          1100.46742689375 
 2222          867.413870012565 
 2223          691.746363141652 
 2224          668.92301159538 
 2225          772.958201430281 
 2226          899.272800913974 
 2227          918.499325383158 
 2228          913.021074220924 
 2229          784.050735708745 
 2230          766.775444242317 
 2231          802.822208785968 
 2232          837.017447124937 
 2233          844.343498634222 
 2234          871.891144459055 
 2235          899.267243233197 
 2236          856.734158260058 
 2237          774.974541384007 
 2238          761.765468213818 
 2239          808.344957663991 
 2240          785.484734216119 
 2241          839.667882624057 
 2242          871.569530089734 
 2243          914.32272048635 
 2244          865.525691707457 
 2245          782.715398942894 
 2246          789.314723968145 
 2247          768.533352694165 
 2248          769.757253489141 
 2249          741.315178499637 
 2250          737.638041353535 
 2251          829.315856929786 
 2252          853.014850017101 
 2253          758.123311817727 
 2254          635.663243884365 
 2255          683.920291506833 
 2256          771.306957798297 
 2257          825.13511583751 
 2258          842.970171950232 
 2259          879.295690496212 
 2260          781.11773404234 
 2261          657.386769633923 
 2262          620.931106763412 
 2263          662.18387209142 
 2264          667.64395876868 
 2265          687.025484433013 
 2266          633.240640534896 
 2267          669.869512273547 
 2268          691.855725016341 
 2269          662.54119475119 
 2270          729.192203029726 
 2271          687.711009218327 
 2272          673.02163556422 
 2273          666.913374315511 
 2274          733.01336327893 
 2275          768.601731375904 
 2276          707.264793626805 
 2277          576.807517222773 
 2278          581.427439767099 
 2279          626.622411894302 
 2280          693.957637735032 
 2281          818.447261831704 
 2282          803.352835842412 
 2283          777.233918746231 
 2284          779.541909689508 
 2285          747.794717472387 
 2286          734.710419191432 
 2287          682.108740804863 
 2288          747.400037523842 
 2289          643.774374763506 
 2290          635.318709748423 
 2291          726.721926348795 
 2292          791.029865180189 
 2293          654.557754661074 
 2294          645.905984215446 
 2295          631.994332384351 
 2296          688.045717346941 
 2297          574.657401331925 
 2298          473.320043733504 
 2299          543.262214684726 
 2300          702.861994418832 
 2301          673.067408344697 
 2302          573.370671611885 
 2303          573.221978336835 
 2304          660.951735969391 
 2305          752.431741061256 
 2306          727.87553583138 
 2307          671.789930097071 
 2308          661.953474305487 
 2309          618.14398712551 
 2310          640.866310125621 
 2311          668.384957510047 
 2312          714.198234213667 
 2313          717.761808397363 
 2314          733.651555790929 
 2315          659.606543742813 
 2316          628.794368853591 
 2317          682.259709171601 
 2318          772.551308056351 
 2319          717.426571690096 
 2320          628.70237405302 
 2321          596.489510017375 
 2322          553.359675366077 
 2323          537.721649253606 
 2324          532.1046998793 
 2325          597.537116994259 
 2326          625.80870169824 
 2327          522.789272474162 
 2328          509.778520243464 
 2329          542.013788890167 
 2330          560.083965895652 
 2331          497.564921524423 
 2332          565.221891144904 
 2333          662.89699321195 
 2334          703.942210169018 
 2335          566.881332179387 
 2336          580.376023596317 
 2337          535.582143490479 
 2338          450.086874906183 
 2339          378.875351746115 
##END=
