##TITLE=1-pentanol 1.jdx
##JCAMP-DX=5.00
##DATE=7/1/2010 2:25:06 PM
##DATATYPE=Raman Spectrum
##DATA CLASS=XYDATA
##ORIGIN=ENWAVE
##OWNER=ENWAVE
##NPOINTS=2090
##FIRSTX= 1
##LASTX= 2339
##MAXX= 2339
##MINX= 1
##XFACTOR=1.0000000000
##YFACTOR=1.0000000000
##FIRSTY= 353.587981361704
##DELTAX=1.000000000000
##XUNITS=1/CM
##YUNITS=ARBITRARY UNITS
##XYDATA=(X++(Y..Y))
 1             353.587981361704 
 251           353.587981361704 
 252           1187.85878569362 
 253           2655.2233686431 
 254           4017.71358378364 
 255           5248.28740402249 
 256           6051.57509368788 
 257           6075.16873749125 
 258           5909.23253292518 
 259           5888.96792197518 
 260           5988.93490691138 
 261           6106.22453814746 
 262           6219.86344390826 
 263           6337.40463616848 
 264           6399.15964700709 
 265           6398.09041651501 
 266           6356.75016991655 
 267           6289.35050438887 
 268           6225.95631058169 
 269           6179.07261714534 
 270           6126.00244619403 
 271           6090.86751045873 
 272           6087.75964194888 
 273           6094.07710771418 
 274           6121.21805614423 
 275           6170.44939248326 
 276           6223.78291963643 
 277           6299.32450138137 
 278           6422.1150143542 
 279           6589.23532188592 
 280           6714.04267365874 
 281           6793.24168206078 
 282           6892.44395972683 
 283           7019.94926399693 
 284           7185.31153780539 
 285           7389.96217483347 
 286           7595.78238951202 
 287           7791.48250258474 
 288           7991.57344612607 
 289           8222.66561641583 
 290           8509.21659759714 
 291           8838.74122509969 
 292           9150.70590183151 
 293           9448.09587272237 
 294           9726.2211403637 
 295           9959.45165427673 
 296           10251.9406115644 
 297           10625.4999313897 
 298           10984.1087082989 
 299           11313.3272362771 
 300           11611.8211345474 
 301           11892.7680614578 
 302           12233.4701641223 
 303           12612.8175957445 
 304           12984.396314223 
 305           13425.3690704192 
 306           13862.726421541 
 307           14214.2059023269 
 308           14564.8120818841 
 309           14928.6722232294 
 310           15285.9440243707 
 311           15638.2318296507 
 312           16032.5540806964 
 313           16415.7716169705 
 314           16645.6148553078 
 315           16815.206845458 
 316           17028.991250666 
 317           17312.9129598063 
 318           17615.3479712215 
 319           17892.5187191166 
 320           18125.6854691959 
 321           18317.59903368 
 322           18514.4566344202 
 323           18711.0850758996 
 324           18784.1166479192 
 325           18826.1980715711 
 326           18887.7449208054 
 327           18833.1115145985 
 328           18732.6574697308 
 329           18653.0013661449 
 330           18554.0529701864 
 331           18350.5964438687 
 332           18029.2009631652 
 333           17630.9075818453 
 334           17148.3819269417 
 335           16679.8654894414 
 336           16331.9535326169 
 337           16052.7053309585 
 338           15775.7358991808 
 339           15496.1756699987 
 340           15284.4881433 
 341           15087.6460263298 
 342           14904.5200926031 
 343           14818.0855111722 
 344           14726.4344383698 
 345           14664.9137152662 
 346           14773.2583130421 
 347           14962.37162455 
 348           15223.9365285371 
 349           15567.3804350162 
 350           15871.4055010359 
 351           16291.3320495644 
 352           16882.5800948123 
 353           17391.3271610217 
 354           18207.7419121819 
 355           19443.7249882684 
 356           20667.9136756227 
 357           21881.0293665927 
 358           23092.8926768693 
 359           24252.7713755437 
 360           25420.8006605845 
 361           26519.3991978773 
 362           27334.2471820297 
 363           27597.8255344192 
 364           27154.9349481015 
 365           25968.3411541461 
 366           24135.2365050107 
 367           21971.6724924855 
 368           19755.8018583723 
 369           17641.7844171217 
 370           15739.9413607112 
 371           14071.2212149043 
 372           12582.071700843 
 373           11221.999328147 
 374           10241.5495914051 
 375           9675.45875312889 
 376           9041.71251247489 
 377           8567.89407338756 
 378           8333.60156250003 
 379           8038.62556212438 
 380           7906.41894689422 
 381           7917.40238405137 
 382           7883.3077312014 
 383           7993.49944419102 
 384           8203.59228394409 
 385           8396.32824020279 
 386           8656.06270166077 
 387           9174.2984036119 
 388           9998.36296350119 
 389           10978.6594879916 
 390           12068.8568904482 
 391           13164.7893768318 
 392           14237.5511199796 
 393           15616.1008039051 
 394           17084.5162895365 
 395           18260.7680275327 
 396           19099.4294017321 
 397           19454.4267798407 
 398           19242.2064351588 
 399           18539.3769582291 
 400           17486.5124810055 
 401           16231.1842832465 
 402           14884.2964431696 
 403           13491.168557281 
 404           12230.3653793442 
 405           11241.1706192903 
 406           10454.1308740058 
 407           9784.58966558153 
 408           9246.22663468182 
 409           8894.29462682013 
 410           8547.64142178446 
 411           8205.09391084166 
 412           7964.32964797124 
 413           7746.89116868281 
 414           7579.09223515467 
 415           7537.26314131534 
 416           7648.76040277663 
 417           7817.48348919296 
 418           7988.35741933283 
 419           8186.41317919117 
 420           8434.57026647419 
 421           8689.93590516885 
 422           8940.1031164299 
 423           9295.15881928224 
 424           9740.23224944561 
 425           10210.8368113533 
 426           10679.9742497814 
 427           11219.3987054503 
 428           11786.7738116378 
 429           12279.2958847789 
 430           12713.8881917529 
 431           13031.206675821 
 432           13203.9936694182 
 433           13304.6790926708 
 434           13276.3422040986 
 435           13042.6406012936 
 436           12635.4976727296 
 437           12291.4824007927 
 438           11759.3679607438 
 439           10800.0175908871 
 440           9778.56607622035 
 441           8933.16736384323 
 442           8217.21113795503 
 443           7458.0037605835 
 444           6872.68324206647 
 445           6433.42628529163 
 446           5978.53589870551 
 447           5574.79543589132 
 448           5270.41439286001 
 449           5044.70353745155 
 450           4831.967389743 
 451           4636.0850905962 
 452           4513.59653832217 
 453           4486.21545894585 
 454           4444.20781328342 
 455           4402.35046694605 
 456           4395.33337006839 
 457           4387.46888882906 
 458           4359.61792977311 
 459           4311.53187498984 
 460           4272.91361256137 
 461           4309.29505002118 
 462           4371.57760115037 
 463           4368.7056462953 
 464           4273.83457786769 
 465           4201.39993957929 
 466           4186.82899111703 
 467           4181.31073908434 
 468           4205.01905158765 
 469           4225.89230822011 
 470           4217.76067700193 
 471           4212.73492700428 
 472           4205.74825708017 
 473           4177.68905201859 
 474           4137.39080607785 
 475           4163.9861472898 
 476           4267.56897468783 
 477           4404.16478921892 
 478           4523.34353686578 
 479           4611.94345383806 
 480           4693.50621381008 
 481           4799.07678233487 
 482           4916.22635038704 
 483           5014.25485782046 
 484           5129.5230670572 
 485           5364.91893409329 
 486           5619.05237448993 
 487           5868.12641553725 
 488           6176.78961777378 
 489           6518.09387127886 
 490           6886.58347707993 
 491           7267.94368716225 
 492           7630.35700748646 
 493           8032.4277287142 
 494           8450.76242203313 
 495           8828.18317113125 
 496           9217.1495628132 
 497           9536.12356733346 
 498           9734.63069281721 
 499           9875.54093688534 
 500           9950.98771015136 
 501           9947.23475521783 
 502           9861.31840516658 
 503           9703.74607440172 
 504           9560.03909665634 
 505           9379.13804237109 
 506           9027.37363126139 
 507           8720.39075657543 
 508           8556.05360172652 
 509           8483.43688695382 
 510           8417.13159110863 
 511           8312.49834311438 
 512           8171.2528473398 
 513           8019.67154628946 
 514           7867.19265413679 
 515           7716.31488636926 
 516           7543.17489049021 
 517           7316.06898995395 
 518           7116.5726957671 
 519           6873.57232859422 
 520           6525.22028132667 
 521           6316.39078682685 
 522           6141.59430902696 
 523           5971.2643270931 
 524           5966.96873503304 
 525           5935.24411924334 
 526           5859.41010131126 
 527           5808.62570612045 
 528           5721.45104808362 
 529           5622.13936224799 
 530           5522.16520238929 
 531           5386.70265508175 
 532           5187.12019138012 
 533           4984.99903365427 
 534           4795.56852916066 
 535           4542.23887484005 
 536           4275.53786756133 
 537           4055.62614671968 
 538           3891.88976267909 
 539           3732.16642366557 
 540           3541.45237928112 
 541           3327.60873556912 
 542           3124.60144631355 
 543           2944.47464444838 
 544           2812.34097459352 
 545           2763.85916207213 
 546           2803.70182763535 
 547           2812.16872912527 
 548           2795.49134280599 
 549           2810.91225846342 
 550           2797.90270637585 
 551           2777.52978727879 
 552           2755.17824350238 
 553           2695.24099226417 
 554           2599.75037720316 
 555           2516.28486898703 
 556           2467.40077828016 
 557           2430.95592996473 
 558           2443.55276002686 
 559           2440.775047521 
 560           2363.23932464538 
 561           2299.76236180085 
 562           2271.23228542978 
 563           2289.18873362877 
 564           2343.28329383543 
 565           2341.86443607812 
 566           2336.32168624821 
 567           2356.66256783156 
 568           2344.73997592048 
 569           2332.39832947161 
 570           2332.0606677253 
 571           2350.40092808368 
 572           2409.10103189633 
 573           2463.09237312811 
 574           2494.13279973574 
 575           2492.93204610489 
 576           2409.45434222798 
 577           2297.95972515082 
 578           2204.77360946874 
 579           2136.19210508242 
 580           2119.41506621555 
 581           2120.33565440189 
 582           2126.31497296013 
 583           2170.57026550819 
 584           2212.63781316204 
 585           2254.93826362348 
 586           2292.09182852181 
 587           2265.93102632541 
 588           2205.19122175903 
 589           2176.37613953064 
 590           2213.46875258658 
 591           2267.21625266874 
 592           2280.26644142219 
 593           2256.51092816045 
 594           2241.01921365763 
 595           2236.80135990382 
 596           2226.04655549521 
 597           2203.79523119998 
 598           2181.8867299321 
 599           2158.15811156814 
 600           2140.7101968638 
 601           2131.56483754681 
 602           2132.39426822753 
 603           2200.39098806447 
 604           2287.06398751942 
 605           2295.21193403129 
 606           2200.58456166684 
 607           2096.07715377403 
 608           2043.50415681268 
 609           2050.28699713215 
 610           2104.95197478511 
 611           2160.56059144933 
 612           2175.90559095351 
 613           2138.66185033627 
 614           2075.19323668553 
 615           2062.3286692335 
 616           2102.97636483609 
 617           2132.34046295614 
 618           2156.19508755875 
 619           2207.55219975441 
 620           2267.53360471183 
 621           2276.82840873974 
 622           2256.10271914568 
 623           2214.21720890265 
 624           2152.14345763322 
 625           2089.06619614893 
 626           2070.39129309581 
 627           2080.27487884739 
 628           2079.61089059151 
 629           2061.3497080987 
 630           2052.90724929419 
 631           2098.94266895538 
 632           2179.43220058894 
 633           2202.74577932932 
 634           2241.90129404367 
 635           2268.96408191927 
 636           2235.16854355221 
 637           2216.08637028024 
 638           2181.97858907308 
 639           2122.14859259498 
 640           2071.90727885165 
 641           2064.14057968775 
 642           2084.79744061738 
 643           2120.03292642139 
 644           2171.32268417946 
 645           2230.23427119057 
 646           2214.12139644928 
 647           2167.32564399562 
 648           2173.14295939617 
 649           2143.97158279702 
 650           2148.40361227537 
 651           2187.15389583626 
 652           2178.96199538675 
 653           2137.55309366563 
 654           2110.89929925089 
 655           2115.8879435354 
 656           2131.97184893479 
 657           2142.63398633543 
 658           2163.71671544885 
 659           2200.27346065833 
 660           2233.27912145591 
 661           2245.16486617504 
 662           2249.18559144989 
 663           2239.90889288004 
 664           2201.1434905162 
 665           2169.31670533947 
 666           2217.1625380141 
 667           2288.98311028125 
 668           2285.74193222163 
 669           2303.48240863959 
 670           2284.22779780935 
 671           2252.27240397314 
 672           2300.74208048909 
 673           2339.22872155696 
 674           2334.53484117259 
 675           2292.269244221 
 676           2221.94913988508 
 677           2139.28766799461 
 678           2107.60889304909 
 679           2126.62035335073 
 680           2136.26891686009 
 681           2123.25105115827 
 682           2143.06112626557 
 683           2199.24050465969 
 684           2271.48023933276 
 685           2396.27613938466 
 686           2443.02436078841 
 687           2361.70883229005 
 688           2259.00024410774 
 689           2274.662385724 
 690           2348.64801013211 
 691           2393.94172462649 
 692           2403.742713951 
 693           2442.21394493518 
 694           2490.52835065748 
 695           2528.20924267324 
 696           2547.50761855542 
 697           2534.02948990737 
 698           2490.07661134503 
 699           2416.84216830829 
 700           2348.51463502464 
 701           2352.55535093055 
 702           2404.88762245193 
 703           2468.83186703145 
 704           2528.48570045701 
 705           2588.76356099225 
 706           2649.58703703659 
 707           2633.09594497969 
 708           2567.86034685302 
 709           2594.19871893463 
 710           2640.81743833294 
 711           2709.85554396166 
 712           2814.68486396944 
 713           2931.18515586817 
 714           3059.22098387102 
 715           3136.00763034696 
 716           3164.54424191064 
 717           3205.93843529091 
 718           3242.45544495541 
 719           3249.51685694956 
 720           3284.88949145216 
 721           3383.99843288382 
 722           3453.01355567824 
 723           3603.21793923418 
 724           3802.8158675402 
 725           3943.44143809293 
 726           4040.23234261431 
 727           4089.49215762859 
 728           4099.08567250348 
 729           4119.91906279789 
 730           4193.95835284933 
 731           4214.30947539396 
 732           4230.91576129362 
 733           4277.54837429289 
 734           4305.301597281 
 735           4384.35525422545 
 736           4492.17513169009 
 737           4573.24611255147 
 738           4626.81129816166 
 739           4704.56332416862 
 740           4696.24959642711 
 741           4638.58254170895 
 742           4632.18377491215 
 743           4615.33342670436 
 744           4576.70933233717 
 745           4554.86150020505 
 746           4554.81180715116 
 747           4519.66760425341 
 748           4447.12140567115 
 749           4413.44120878781 
 750           4395.54711021816 
 751           4368.16959882036 
 752           4605.97337520877 
 753           4918.95462307532 
 754           5193.12554617334 
 755           5493.96107645771 
 756           5777.34003661164 
 757           6167.96429491944 
 758           6684.26453424551 
 759           7283.62936187594 
 760           7969.4863143831 
 761           8628.38650713458 
 762           9231.7266076894 
 763           9870.04813391506 
 764           10592.3786969528 
 765           11197.9202763869 
 766           11706.9141887683 
 767           11992.5205234404 
 768           11920.2693533656 
 769           11748.3284965022 
 770           11533.5288395387 
 771           11314.996036624 
 772           11082.8462068701 
 773           10762.6079833788 
 774           10485.2484045924 
 775           10301.780282862 
 776           10154.8376979267 
 777           10001.1881780202 
 778           9915.69124063498 
 779           9801.1230141931 
 780           9546.13711631224 
 781           9177.71482782998 
 782           8824.72160670206 
 783           8400.04849023783 
 784           7926.17961578778 
 785           7476.90348473848 
 786           7035.15330854713 
 787           6534.33695540975 
 788           6114.95544400688 
 789           5771.24953679331 
 790           5439.00445592165 
 791           5277.24229158181 
 792           5118.86986423022 
 793           4924.28118454389 
 794           4751.28124403301 
 795           4605.84240232015 
 796           4535.1249341106 
 797           4496.84398163102 
 798           4451.70913740889 
 799           4427.2211882453 
 800           4465.62648879681 
 801           4487.67359920055 
 802           4520.86953283914 
 803           4587.89911483299 
 804           4620.82028734693 
 805           4688.37730358022 
 806           4773.17676826112 
 807           4850.13283324623 
 808           4931.86678429683 
 809           5032.22512946654 
 810           5203.61497199663 
 811           5391.7469818355 
 812           5595.73373283088 
 813           5918.63455501899 
 814           6268.42936759474 
 815           6601.86157778977 
 816           6961.76101655934 
 817           7374.22180738622 
 818           7825.25794281671 
 819           8567.9165170968 
 820           9530.74899727489 
 821           10679.460256509 
 822           12078.9767845072 
 823           13369.6455410206 
 824           15254.3597710188 
 825           17890.7484010376 
 826           20801.0773243915 
 827           23794.8623215526 
 828           26786.2389136738 
 829           29532.2854494189 
 830           31863.4395648056 
 831           33686.7666006821 
 832           34780.8686647396 
 833           35314.054435108 
 834           35398.3371469071 
 835           35117.6713081544 
 836           34595.6257907617 
 837           33749.5619388042 
 838           32907.2513128284 
 839           32072.1589471339 
 840           31089.0716524403 
 841           30177.5199609658 
 842           29132.3569766303 
 843           28050.9099053148 
 844           27101.827814961 
 845           26202.6882100027 
 846           25233.9147501493 
 847           24755.8017257034 
 848           24831.0299271558 
 849           25279.8726368153 
 850           26146.6849487378 
 851           27216.9065704941 
 852           28186.1488929311 
 853           28815.7356766345 
 854           29260.3663667369 
 855           29784.3368210787 
 856           29413.9804984845 
 857           28407.3285374044 
 858           27143.6980386606 
 859           25545.0470858388 
 860           23784.7841349381 
 861           22035.3250958988 
 862           20340.5385457107 
 863           18779.7070748961 
 864           17532.3243417044 
 865           16700.5422171971 
 866           16193.5258373801 
 867           15925.81525642 
 868           15803.5433394991 
 869           15811.7654978412 
 870           16181.8714100506 
 871           16464.8893354021 
 872           16952.727422728 
 873           17724.0596884222 
 874           17953.4143719358 
 875           18208.9701390244 
 876           18274.8084400766 
 877           18012.6358611633 
 878           17942.945441879 
 879           18632.9314853035 
 880           19666.8763327736 
 881           20813.3569166997 
 882           22015.1195728757 
 883           23125.609054414 
 884           23931.5010642897 
 885           24416.686105712 
 886           24125.1433443249 
 887           23394.0611763948 
 888           22702.8627739632 
 889           21240.2966156011 
 890           19565.1916083958 
 891           17891.0005304422 
 892           16320.2146834405 
 893           15116.2272506548 
 894           14262.6416912601 
 895           13674.7293580142 
 896           13199.4998186714 
 897           12759.450862682 
 898           12367.2251716818 
 899           11968.2164963016 
 900           11468.8615534453 
 901           10993.5657356226 
 902           10621.4162650881 
 903           10329.9622269103 
 904           10218.2381336766 
 905           10134.7008923048 
 906           10017.9846867185 
 907           9848.86991406753 
 908           9613.32405727367 
 909           9401.37363793062 
 910           9193.66587090749 
 911           8949.56755365626 
 912           8658.81664576988 
 913           8295.91484360224 
 914           7798.11088651125 
 915           7263.40937347838 
 916           6681.05137552739 
 917           6136.53859192677 
 918           5777.93212890672 
 919           5510.91407755705 
 920           5227.86059148634 
 921           4936.7591892905 
 922           4636.70172220414 
 923           4355.14739355369 
 924           4222.04784550664 
 925           4134.56725881467 
 926           4035.75930018266 
 927           3947.70720956017 
 928           3874.39655203692 
 929           3766.78661358917 
 930           3654.91253556567 
 931           3636.68033526217 
 932           3637.46429486614 
 933           3586.11571956061 
 934           3590.2592809523 
 935           3577.04669730883 
 936           3625.64432312681 
 937           3751.22230930714 
 938           3817.61628410708 
 939           3741.37268386776 
 940           3687.83164732481 
 941           3567.10011665689 
 942           3551.84735358911 
 943           3698.60504965146 
 944           3796.76937381996 
 945           3940.92369580823 
 946           4056.75857148595 
 947           4097.39977973494 
 948           4113.7943097085 
 949           4168.20076359532 
 950           4275.1948316283 
 951           4508.64082492933 
 952           4792.66876862258 
 953           5075.70951968993 
 954           5351.07502183225 
 955           5585.64376425946 
 956           5870.24563957167 
 957           6222.13759885867 
 958           6661.4705965533 
 959           7152.19820621377 
 960           7637.48170485876 
 961           8234.02159939362 
 962           8838.92168247876 
 963           9476.29217375791 
 964           10174.5627778805 
 965           10894.5690972177 
 966           11615.2158534307 
 967           12046.9167262827 
 968           12450.9319171554 
 969           12699.1699436482 
 970           12596.0959494065 
 971           12578.0754782359 
 972           12654.1188043339 
 973           12897.1442485285 
 974           13385.744793785 
 975           13946.8765622506 
 976           14382.178854486 
 977           14856.2473252084 
 978           15017.7895803158 
 979           14927.4544351639 
 980           14776.7808818803 
 981           14611.2064305971 
 982           14457.6290157943 
 983           14255.3938729109 
 984           13882.4097871492 
 985           13401.9987093901 
 986           12889.1817612014 
 987           12429.2954596538 
 988           12303.2332175529 
 989           12161.5131636494 
 990           12229.6642219848 
 991           12482.4257568735 
 992           12718.8572184456 
 993           13234.7149693855 
 994           13917.4853243372 
 995           14664.3553164171 
 996           15464.4002439394 
 997           16305.7034372669 
 998           17142.3392415119 
 999           17974.5405018726 
 1000          18871.1457537734 
 1001          19682.7390258213 
 1002          20190.6309044012 
 1003          20406.1141222717 
 1004          20521.7356003101 
 1005          20526.559596022 
 1006          20554.1126898346 
 1007          20433.4688630083 
 1008          20102.8054536308 
 1009          19816.4091627236 
 1010          19708.8723124421 
 1011          19583.1427985711 
 1012          19594.3018559776 
 1013          19679.9058209848 
 1014          19756.0996316675 
 1015          19852.4986000519 
 1016          19754.090037528 
 1017          19486.2455420473 
 1018          19163.0978847841 
 1019          18899.8308840297 
 1020          18526.5184716863 
 1021          17832.1974227153 
 1022          17193.3381717595 
 1023          16414.4080851028 
 1024          15719.637116715 
 1025          15148.1563243456 
 1026          14580.0932551328 
 1027          14240.3571760389 
 1028          14169.2027556113 
 1029          14102.1914718779 
 1030          14095.8180669313 
 1031          14056.6924291919 
 1032          13798.5792887817 
 1033          13500.4831427732 
 1034          13198.0876517562 
 1035          12863.1738657881 
 1036          12658.0222721507 
 1037          12643.1226486428 
 1038          12691.2534919604 
 1039          12784.9265075167 
 1040          13058.8779044012 
 1041          13570.0598879005 
 1042          14102.5046281156 
 1043          14674.2376376554 
 1044          15501.9450983874 
 1045          16504.7863577506 
 1046          17648.3803411976 
 1047          18752.9818835608 
 1048          20083.9300959343 
 1049          21756.4200710376 
 1050          23424.1354104474 
 1051          24841.0145294865 
 1052          26009.2984133844 
 1053          27048.3428246144 
 1054          27758.0539314167 
 1055          27979.4072451421 
 1056          28032.6479823217 
 1057          28106.2163610009 
 1058          27251.7910011864 
 1059          26011.0012431782 
 1060          24631.948819814 
 1061          23270.2463628075 
 1062          22317.998454432 
 1063          21876.7122697881 
 1064          21918.7606649874 
 1065          22277.2310104672 
 1066          22957.4089152053 
 1067          23846.6816560793 
 1068          24951.9847833142 
 1069          26408.2620676688 
 1070          27673.7844034534 
 1071          28766.4575763834 
 1072          29395.5950406438 
 1073          29383.237439275 
 1074          28930.177098835 
 1075          28173.7424724505 
 1076          27020.5019742161 
 1077          25884.8829169314 
 1078          24701.0785403649 
 1079          23347.2532933163 
 1080          21912.5654263745 
 1081          20494.3063457578 
 1082          19048.7737372619 
 1083          17541.6994093337 
 1084          16275.8055269729 
 1085          15029.8798079064 
 1086          13750.5343681726 
 1087          12707.6925644424 
 1088          11899.9199880159 
 1089          11400.4958123594 
 1090          10990.8499910626 
 1091          10624.5845774454 
 1092          10281.7809457008 
 1093          9984.30014759512 
 1094          9838.07274026988 
 1095          9811.19442139358 
 1096          9899.37070251677 
 1097          9946.38714566268 
 1098          10218.121857363 
 1099          10691.3017017788 
 1100          11116.5300999998 
 1101          11684.647722405 
 1102          12172.1126846728 
 1103          12807.0474048718 
 1104          13702.2985767075 
 1105          14780.1653998891 
 1106          15955.8625096035 
 1107          17140.2850318903 
 1108          18312.312356979 
 1109          19839.8618137964 
 1110          21297.1542788439 
 1111          22491.251466553 
 1112          23503.8812083404 
 1113          24301.3871468571 
 1114          24822.8669438757 
 1115          24970.9838747394 
 1116          24229.0990573082 
 1117          23002.6177881555 
 1118          21668.862565132 
 1119          20244.9383108681 
 1120          18735.1401531921 
 1121          17239.6103724501 
 1122          16041.2927253327 
 1123          15056.530259907 
 1124          14276.0184001505 
 1125          13619.351795132 
 1126          13049.095956183 
 1127          12588.52718401 
 1128          12084.4359057849 
 1129          11694.831025601 
 1130          11318.2280060342 
 1131          10971.6120579664 
 1132          10646.1002044003 
 1133          10334.3088063343 
 1134          10112.0952000591 
 1135          9875.23772007402 
 1136          9536.66322862911 
 1137          9187.25884320831 
 1138          8815.15386577783 
 1139          8396.90126315913 
 1140          8076.89725274157 
 1141          7924.13788285479 
 1142          7653.36151800932 
 1143          7218.5074640046 
 1144          6749.25452382421 
 1145          6335.33227012149 
 1146          6014.92847104491 
 1147          5745.9213624664 
 1148          5476.49441921258 
 1149          5279.73158415661 
 1150          5071.97650620542 
 1151          4909.22736226202 
 1152          4767.37108942378 
 1153          4624.15407378683 
 1154          4491.71272977636 
 1155          4378.53269384537 
 1156          4329.54311503091 
 1157          4274.28318384038 
 1158          4138.91469020893 
 1159          3973.52918932922 
 1160          3910.99667453652 
 1161          3922.86944146871 
 1162          3898.14535499437 
 1163          3861.93451596564 
 1164          3722.84921496721 
 1165          3760.8673368543 
 1166          3902.36555218346 
 1167          3956.06061359655 
 1168          3887.70129436684 
 1169          3753.98991666986 
 1170          3663.07079404986 
 1171          3760.04572585025 
 1172          3882.3197505406 
 1173          3927.02871504401 
 1174          3898.40854674324 
 1175          3884.75389095992 
 1176          3916.99734500697 
 1177          3945.23534569916 
 1178          4016.45216371623 
 1179          4149.51022609402 
 1180          4291.17046798535 
 1181          4420.34148479665 
 1182          4570.17736383595 
 1183          4700.93202897384 
 1184          4760.89387229615 
 1185          4862.25787723645 
 1186          5101.18532652426 
 1187          5313.60074915065 
 1188          5525.20511448273 
 1189          5714.1308725196 
 1190          5882.65645376079 
 1191          6043.05626120504 
 1192          6181.72060770496 
 1193          6316.27816003929 
 1194          6298.02188928536 
 1195          6304.80508353102 
 1196          6388.67436703072 
 1197          6579.97884233014 
 1198          6732.70938726577 
 1199          6767.50219616333 
 1200          6866.14145774548 
 1201          6990.04114291872 
 1202          7049.36114263792 
 1203          7012.99397283819 
 1204          6872.68414215357 
 1205          6781.09237443664 
 1206          6703.15017292511 
 1207          6511.73304372936 
 1208          6322.7688150126 
 1209          6168.20133748249 
 1210          5994.34756018937 
 1211          5863.45351735826 
 1212          5804.45862223974 
 1213          5775.73286085696 
 1214          5717.51869795353 
 1215          5633.23017904502 
 1216          5590.55916770576 
 1217          5625.18385063958 
 1218          5723.13510815982 
 1219          5757.23079050626 
 1220          5882.5810799888 
 1221          6039.58179705468 
 1222          6253.16139712199 
 1223          6597.33828788435 
 1224          6941.49534131528 
 1225          7290.63535203209 
 1226          7558.23932667922 
 1227          7835.68268040529 
 1228          8134.17416877956 
 1229          8450.24562908642 
 1230          8708.63246526979 
 1231          8938.17160471019 
 1232          9115.21825511146 
 1233          9055.0746048905 
 1234          9051.16436928989 
 1235          8937.86620040814 
 1236          8786.59069586589 
 1237          8655.81068838997 
 1238          8563.2972046968 
 1239          8374.06016483572 
 1240          8018.30851011339 
 1241          7660.31908964993 
 1242          7327.2252900907 
 1243          7128.70246572276 
 1244          7005.08517191003 
 1245          6807.59436825767 
 1246          6628.78346919506 
 1247          6501.24887341848 
 1248          6406.58372405341 
 1249          6373.90308066319 
 1250          6342.33991962074 
 1251          6337.73022757692 
 1252          6387.59991515343 
 1253          6501.54847637718 
 1254          6643.59903977025 
 1255          6771.002721279 
 1256          6871.81525447448 
 1257          7012.34267192689 
 1258          7270.68324450026 
 1259          7607.58239857755 
 1260          7981.81108547342 
 1261          8502.90226554916 
 1262          9099.52487938457 
 1263          9575.56175316672 
 1264          10000.363845983 
 1265          10422.8203737931 
 1266          10807.7105021477 
 1267          11210.5753233866 
 1268          11647.8496665379 
 1269          12082.0169911385 
 1270          12431.3956347383 
 1271          12755.7463317827 
 1272          13072.6190552306 
 1273          13430.834703915 
 1274          13842.902515336 
 1275          14196.1581663315 
 1276          14399.7778893616 
 1277          14540.4206050678 
 1278          14722.8210939891 
 1279          14903.0925732265 
 1280          15211.6311496447 
 1281          15529.466522698 
 1282          15870.5618483443 
 1283          16491.6976880138 
 1284          17245.7526548208 
 1285          18083.3269995076 
 1286          19262.1637682844 
 1287          20459.1429390824 
 1288          21664.4468715254 
 1289          23076.9132505032 
 1290          24782.5247932742 
 1291          26860.8165667065 
 1292          29116.2876827736 
 1293          31158.1839348071 
 1294          32907.6867623866 
 1295          34581.5223091259 
 1296          36264.6398817126 
 1297          37816.5864359807 
 1298          38874.6758708905 
 1299          39219.9331986677 
 1300          38805.2184007337 
 1301          37731.22454246 
 1302          36492.0763258833 
 1303          35036.8473468191 
 1304          32972.0819604806 
 1305          30540.7400074699 
 1306          28240.301153652 
 1307          26183.6617434821 
 1308          24480.5616623614 
 1309          22777.5919274199 
 1310          21061.9868980169 
 1311          19707.6998775177 
 1312          18441.6934064861 
 1313          17302.8748552701 
 1314          16307.1032016323 
 1315          15323.1806714273 
 1316          14569.8020463412 
 1317          13893.5637447464 
 1318          13146.3562419872 
 1319          12575.4445696593 
 1320          12005.0606896202 
 1321          11808.3145001469 
 1322          11512.6969385287 
 1323          11020.3979321239 
 1324          10504.8489463079 
 1325          10033.6463999217 
 1326          9770.46508958991 
 1327          9644.4647538416 
 1328          9440.6646804017 
 1329          9157.85425609906 
 1330          8959.34970493778 
 1331          8778.04374788546 
 1332          8767.10066718653 
 1333          8822.20742357259 
 1334          8855.46202936496 
 1335          8998.62640306053 
 1336          9209.35833759396 
 1337          9395.69103700246 
 1338          9604.11381175824 
 1339          9744.57232576111 
 1340          9886.45959251184 
 1341          9712.18864788556 
 1342          9548.69726860428 
 1343          9332.41729078401 
 1344          9135.05184553906 
 1345          8975.64268173283 
 1346          8780.13869477744 
 1347          8582.56400837995 
 1348          8400.687319264 
 1349          8206.80269129025 
 1350          8075.49312110971 
 1351          8043.390326705 
 1352          8051.7495881999 
 1353          8067.99625849811 
 1354          7993.83226554766 
 1355          7945.72714891399 
 1356          7869.44866961523 
 1357          7911.53352074575 
 1358          8064.67585714817 
 1359          8186.13257696954 
 1360          8323.78435237171 
 1361          8473.35310650886 
 1362          8601.75609390164 
 1363          8759.19407382726 
 1364          8915.62968795643 
 1365          8962.25461450831 
 1366          8882.36954969029 
 1367          8818.19342275238 
 1368          8772.5213346572 
 1369          8731.11542586634 
 1370          8741.45510339999 
 1371          8734.86771118948 
 1372          8677.79137536282 
 1373          8611.77568553519 
 1374          8552.03491565609 
 1375          8632.63414430579 
 1376          8698.32421874983 
 1377          8725.19891631297 
 1378          8628.0373184566 
 1379          8549.66015564577 
 1380          8462.83355958083 
 1381          8392.8537589935 
 1382          8348.34722631211 
 1383          8268.98758343413 
 1384          8180.02735500398 
 1385          8029.8581376352 
 1386          7842.37927318186 
 1387          7838.54644057792 
 1388          7901.8640442065 
 1389          7971.94155407698 
 1390          7964.71278237762 
 1391          7971.17096082552 
 1392          7994.48024549918 
 1393          8060.63294150818 
 1394          8096.64952269191 
 1395          8185.42095682383 
 1396          8289.40093205849 
 1397          8390.65410713464 
 1398          8526.50493373617 
 1399          8655.24528462836 
 1400          8771.79420060027 
 1401          8895.32590562715 
 1402          9087.86738673444 
 1403          9242.95814147292 
 1404          9375.91343823294 
 1405          9492.56522691279 
 1406          9777.40453129299 
 1407          9990.78556999627 
 1408          10237.7153928789 
 1409          10421.9949997136 
 1410          10617.7295902827 
 1411          10823.960195502 
 1412          11057.4520144079 
 1413          11390.0438425704 
 1414          11695.5482983138 
 1415          12035.1731272801 
 1416          12481.0999289751 
 1417          13012.775391995 
 1418          13632.6847826257 
 1419          14236.6037258659 
 1420          14825.5632321788 
 1421          15658.0692208892 
 1422          16674.4799687371 
 1423          17934.9308745381 
 1424          19326.7365731746 
 1425          20890.0331760712 
 1426          22643.9678024929 
 1427          24641.2163031755 
 1428          26897.9620160926 
 1429          29142.6842158873 
 1430          31560.5748424744 
 1431          34397.8619346297 
 1432          36987.1748969676 
 1433          39350.4079502324 
 1434          41621.7713403989 
 1435          43895.4438722952 
 1436          46176.7245934719 
 1437          48088.9587633509 
 1438          49222.4834068602 
 1439          49644.7861657759 
 1440          49896.3367033833 
 1441          49876.1922343961 
 1442          49700.4576007904 
 1443          49627.8967036334 
 1444          49321.7599416655 
 1445          48808.3627953937 
 1446          48230.3398199076 
 1447          47389.2423206467 
 1448          46550.2485853407 
 1449          45932.1168991894 
 1450          45809.9396769177 
 1451          45650.2234412268 
 1452          45678.3427907159 
 1453          45637.9575662396 
 1454          45561.4548005917 
 1455          45462.0777042267 
 1456          44818.6205043299 
 1457          43930.9364020519 
 1458          43037.971385337 
 1459          41987.2029943576 
 1460          40904.4990959962 
 1461          39912.1768314373 
 1462          39140.2270700722 
 1463          38504.7404826037 
 1464          37899.9909883191 
 1465          37415.3088329878 
 1466          36892.1162570582 
 1467          36318.2075427934 
 1468          35720.3341233674 
 1469          34920.8276652839 
 1470          33614.2504746706 
 1471          32464.2481845942 
 1472          31538.7966518216 
 1473          30893.0457252501 
 1474          30234.8458500131 
 1475          29140.8304301445 
 1476          28051.2674848372 
 1477          26762.2325840135 
 1478          25409.7933841123 
 1479          24044.0429595223 
 1480          22698.247935104 
 1481          21502.8745324675 
 1482          20328.5991008712 
 1483          19008.0900797219 
 1484          17709.4221120297 
 1485          16631.3051509571 
 1486          15718.3820175369 
 1487          14815.1566138984 
 1488          13773.1404811553 
 1489          12801.9311942906 
 1490          12124.4510156939 
 1491          11470.4326788765 
 1492          10973.507471501 
 1493          10445.5740540903 
 1494          10098.4415950626 
 1495          9706.10185744125 
 1496          9327.34709122731 
 1497          9133.80311727695 
 1498          8998.28447265272 
 1499          8700.67554901385 
 1500          8464.19786407324 
 1501          8260.13895168012 
 1502          8059.49612887495 
 1503          7905.731853706 
 1504          7687.59152889543 
 1505          7481.42224750992 
 1506          7314.85138523083 
 1507          7144.97951274149 
 1508          6971.8355663565 
 1509          6894.0195710369 
 1510          6898.29446020217 
 1511          6841.79379018589 
 1512          6814.46784883068 
 1513          6745.95556948095 
 1514          6606.28198546349 
 1515          6486.74856861945 
 1516          6317.50005891574 
 1517          6185.63209800981 
 1518          6060.77986972231 
 1519          6042.87506214057 
 1520          5962.64835863113 
 1521          5952.31897427914 
 1522          5856.4655637228 
 1523          5756.66286227324 
 1524          5741.18600390923 
 1525          5687.29702608021 
 1526          5642.08977838366 
 1527          5603.25200555102 
 1528          5549.93155775765 
 1529          5519.03717556738 
 1530          5381.23974773972 
 1531          5199.82080097408 
 1532          5145.62845286425 
 1533          5155.77190777985 
 1534          5138.38732322579 
 1535          5119.91337100817 
 1536          5075.55406850285 
 1537          5005.8330225598 
 1538          4919.06500953903 
 1539          4906.32139500478 
 1540          4941.85916504783 
 1541          4975.17637845596 
 1542          4944.63302352457 
 1543          4812.6650778891 
 1544          4716.75550674859 
 1545          4638.10446754963 
 1546          4613.24196044977 
 1547          4554.7237100963 
 1548          4509.44449720449 
 1549          4476.10434116149 
 1550          4430.87449189587 
 1551          4334.44059510763 
 1552          4228.25651552052 
 1553          4172.07417739714 
 1554          4206.72611002241 
 1555          4227.10992871261 
 1556          4193.71295103163 
 1557          4179.28108040907 
 1558          4148.94208069978 
 1559          4103.28047797783 
 1560          4142.57378282688 
 1561          4051.60449334384 
 1562          3947.2819640826 
 1563          3905.59744576784 
 1564          3922.31316230914 
 1565          3998.17683003986 
 1566          4055.67512245224 
 1567          4059.16732494591 
 1568          4052.82620256689 
 1569          3962.99586829006 
 1570          3897.11285310754 
 1571          3884.52299512024 
 1572          3878.30356205047 
 1573          3863.83543378523 
 1574          3854.57108585439 
 1575          3793.77935005336 
 1576          3742.98457425552 
 1577          3721.35892940713 
 1578          3729.64214294257 
 1579          3694.38932657756 
 1580          3648.3624213273 
 1581          3618.92726301627 
 1582          3544.82092144333 
 1583          3425.12207473066 
 1584          3373.92508017256 
 1585          3427.45801165185 
 1586          3513.78623443852 
 1587          3555.59049922742 
 1588          3592.44076078272 
 1589          3588.58488383764 
 1590          3537.44094560381 
 1591          3522.15641056273 
 1592          3475.95053085504 
 1593          3415.92651950132 
 1594          3376.70602485711 
 1595          3314.61873142676 
 1596          3312.96117829753 
 1597          3319.35202011383 
 1598          3332.95170957138 
 1599          3322.32928951539 
 1600          3248.89944922391 
 1601          3186.52309472662 
 1602          3048.5916304071 
 1603          2968.32782297655 
 1604          3018.84587387593 
 1605          3047.56240272664 
 1606          3067.25260487873 
 1607          3046.70064787398 
 1608          3060.26821930702 
 1609          3063.92970175396 
 1610          3055.40817845182 
 1611          3104.9753344745 
 1612          3173.59307359312 
 1613          3219.31103639785 
 1614          3184.0153773675 
 1615          3148.21845608715 
 1616          3033.35220875438 
 1617          3031.46701084364 
 1618          3130.5740448906 
 1619          3177.77349359245 
 1620          3154.20311948089 
 1621          3113.65545056406 
 1622          3167.34861369847 
 1623          3195.8500139605 
 1624          3198.72408847934 
 1625          3166.03104991095 
 1626          3120.25877334113 
 1627          3127.77135858493 
 1628          3126.18339202978 
 1629          3137.43688075779 
 1630          3160.8008109772 
 1631          3108.92537154741 
 1632          3067.89541583158 
 1633          3059.82474981786 
 1634          3046.92639091546 
 1635          3073.89029828392 
 1636          3003.11974084891 
 1637          2940.73577722534 
 1638          2930.72543920339 
 1639          2978.97946813102 
 1640          3027.51577330317 
 1641          3021.58111431481 
 1642          3023.08648494724 
 1643          2986.70227480845 
 1644          2960.1545917913 
 1645          3014.26098211252 
 1646          3118.75633516747 
 1647          3114.63902515497 
 1648          3071.35580491033 
 1649          3064.70082860899 
 1650          3001.52715771269 
 1651          3013.8735548605 
 1652          3092.29175298791 
 1653          3073.947060486 
 1654          3047.67334634526 
 1655          2912.87175561088 
 1656          2881.48952258298 
 1657          2981.23820518833 
 1658          3031.97705870466 
 1659          2920.56638952619 
 1660          2885.56833450453 
 1661          2885.00720879981 
 1662          2970.2307977988 
 1663          3050.44658695076 
 1664          2994.71251428159 
 1665          2931.7134570707 
 1666          2924.84205122 
 1667          2913.34347080474 
 1668          2895.0856169997 
 1669          2963.9723399866 
 1670          3058.01937032961 
 1671          3036.7002754622 
 1672          3037.39529454398 
 1673          3034.52012316852 
 1674          3005.38710217518 
 1675          3031.65085747903 
 1676          3040.71221934003 
 1677          3085.40920730813 
 1678          3121.51468229229 
 1679          3106.18436085429 
 1680          3117.65173501269 
 1681          3103.60980744469 
 1682          3016.8894715221 
 1683          2932.80099409478 
 1684          2922.38005679169 
 1685          2993.50034945522 
 1686          2995.27521780698 
 1687          2875.73034189575 
 1688          2834.30106202696 
 1689          2794.83653526665 
 1690          2858.3632240924 
 1691          2913.84703428915 
 1692          2924.46090433952 
 1693          2988.04265081057 
 1694          3061.24039037446 
 1695          3013.3872486986 
 1696          2861.60152671633 
 1697          2721.34581167459 
 1698          2761.05177970016 
 1699          2892.79598762711 
 1700          2917.99317726437 
 1701          2859.16193274914 
 1702          2801.59766821566 
 1703          2728.50246994081 
 1704          2686.25215508801 
 1705          2726.21384384921 
 1706          2751.20524718333 
 1707          2813.376994491 
 1708          2820.20209240076 
 1709          2864.68004627728 
 1710          2913.54899298689 
 1711          2825.39509334367 
 1712          2736.85156078843 
 1713          2620.58878065437 
 1714          2619.96364886987 
 1715          2681.9851896771 
 1716          2699.3572318815 
 1717          2702.68401880377 
 1718          2614.24697368941 
 1719          2528.56363789339 
 1720          2468.61759681749 
 1721          2504.74823004512 
 1722          2495.81165443942 
 1723          2428.36450940023 
 1724          2423.05518019641 
 1725          2456.7928011595 
 1726          2615.98689578466 
 1727          2658.22542765146 
 1728          2529.31476301901 
 1729          2407.96392263184 
 1730          2388.6427240747 
 1731          2470.19664958662 
 1732          2555.83011120338 
 1733          2549.80284833534 
 1734          2471.61205086495 
 1735          2387.06058573402 
 1736          2356.92894211715 
 1737          2351.84201630107 
 1738          2328.06996059966 
 1739          2432.61003113701 
 1740          2407.40014431012 
 1741          2378.61747332279 
 1742          2270.79365296564 
 1743          2258.8064580235 
 1744          2295.68347750462 
 1745          2245.55096866274 
 1746          2190.69839063086 
 1747          2194.45291326314 
 1748          2235.92347569304 
 1749          2297.62183083177 
 1750          2411.4450393821 
 1751          2444.96531017394 
 1752          2404.00436512794 
 1753          2382.26609723444 
 1754          2320.39769740798 
 1755          2246.92680244679 
 1756          2180.97311335013 
 1757          2177.63354862692 
 1758          2281.62127830666 
 1759          2188.74320895772 
 1760          2137.73348456 
 1761          2070.874937332 
 1762          2065.75089570093 
 1763          2009.36962153465 
 1764          1978.09782294427 
 1765          2103.83453749718 
 1766          2231.22380500964 
 1767          2320.22026014667 
 1768          2344.37994689593 
 1769          2282.64287417728 
 1770          2057.38075961435 
 1771          1963.39021299274 
 1772          1993.21301501513 
 1773          2082.08436542247 
 1774          2023.7499046479 
 1775          2011.74100163261 
 1776          1974.19845229219 
 1777          1950.26404841426 
 1778          1987.88326202715 
 1779          2018.38414813166 
 1780          2037.41899454427 
 1781          2021.20315050718 
 1782          2001.78111915582 
 1783          2094.04145902048 
 1784          2071.38181713943 
 1785          1978.11885759336 
 1786          1959.85850272472 
 1787          2037.02284808835 
 1788          2052.5076811912 
 1789          2005.54858595817 
 1790          1985.23255406817 
 1791          1972.69655281655 
 1792          2000.95292042209 
 1793          1987.35332331547 
 1794          2000.26777439684 
 1795          1974.2129521666 
 1796          1958.90114685978 
 1797          1907.53407115907 
 1798          1867.51045789362 
 1799          1775.6184506835 
 1800          1745.78270193815 
 1801          1762.11493770139 
 1802          1927.55752096927 
 1803          1960.5122242057 
 1804          1889.78560893018 
 1805          1733.33774160495 
 1806          1824.17964094504 
 1807          1928.09468593831 
 1808          1938.57006825445 
 1809          1820.75032229148 
 1810          1773.54320332788 
 1811          1701.90290521716 
 1812          1730.3595639778 
 1813          1787.04385629535 
 1814          1803.26062904057 
 1815          1764.06055804901 
 1816          1810.70950456787 
 1817          1864.60807571318 
 1818          1862.75015759206 
 1819          1837.67698831526 
 1820          1787.05164828185 
 1821          1761.13989288127 
 1822          1741.56778722988 
 1823          1696.9933846405 
 1824          1669.4571267205 
 1825          1700.35917712686 
 1826          1723.30706615267 
 1827          1698.24669131338 
 1828          1719.0613056694 
 1829          1863.35789916595 
 1830          1950.37844946903 
 1831          1927.43280771422 
 1832          1950.26472366086 
 1833          1928.36067373168 
 1834          1896.1309792986 
 1835          1801.18677579573 
 1836          1772.01989193771 
 1837          1793.45500893965 
 1838          1819.93061427533 
 1839          1906.8686189242 
 1840          1915.08592231998 
 1841          1883.53341767177 
 1842          1840.25919225311 
 1843          1774.71883905237 
 1844          1759.21154144718 
 1845          1711.35524254774 
 1846          1690.64010383393 
 1847          1677.63522276004 
 1848          1646.19812055614 
 1849          1593.94410850201 
 1850          1654.42254491623 
 1851          1784.20305892356 
 1852          1858.63485626814 
 1853          1815.78538353954 
 1854          1804.74689985686 
 1855          1767.67673172568 
 1856          1751.72639223496 
 1857          1767.36183557812 
 1858          1727.55390451584 
 1859          1565.68716571582 
 1860          1513.95408831801 
 1861          1635.30278919839 
 1862          1707.70271742 
 1863          1665.34360948199 
 1864          1652.51718340221 
 1865          1744.71397956842 
 1866          1689.23676669648 
 1867          1650.10302981531 
 1868          1532.36919066841 
 1869          1560.74019382748 
 1870          1614.3324120001 
 1871          1637.61496387592 
 1872          1650.77768244084 
 1873          1717.21405012054 
 1874          1763.3089048888 
 1875          1835.95092743109 
 1876          1815.28470763046 
 1877          1790.82045598141 
 1878          1789.8469602492 
 1879          1817.47661336158 
 1880          1625.51247366551 
 1881          1532.33970384553 
 1882          1533.02678647 
 1883          1732.26159299251 
 1884          1774.48374037631 
 1885          1721.74819490436 
 1886          1667.94419943471 
 1887          1705.38738481359 
 1888          1695.662906735 
 1889          1692.88073265239 
 1890          1669.21533825824 
 1891          1575.38934831397 
 1892          1499.37010000344 
 1893          1497.50646948309 
 1894          1592.19376101826 
 1895          1657.7282856725 
 1896          1669.39507032897 
 1897          1679.21344827667 
 1898          1674.96215458926 
 1899          1618.22340720719 
 1900          1472.3509965239 
 1901          1570.72742224373 
 1902          1640.00822552527 
 1903          1589.45139070046 
 1904          1525.05793477635 
 1905          1576.47263771353 
 1906          1614.35815500729 
 1907          1608.74561020066 
 1908          1566.59085224431 
 1909          1526.28552081995 
 1910          1517.92618667261 
 1911          1483.59478622411 
 1912          1454.9400315386 
 1913          1476.04363033916 
 1914          1516.17182134403 
 1915          1554.34689152959 
 1916          1550.87905882316 
 1917          1546.97218637166 
 1918          1569.99796315812 
 1919          1564.44326542307 
 1920          1493.22028489687 
 1921          1471.85748002893 
 1922          1443.50792688339 
 1923          1382.32189100365 
 1924          1402.65091797615 
 1925          1428.02653931507 
 1926          1470.07135151607 
 1927          1505.15076932893 
 1928          1617.58682964371 
 1929          1665.0547641478 
 1930          1565.58507519449 
 1931          1494.58935938082 
 1932          1543.14040707003 
 1933          1566.80984288905 
 1934          1541.18960110538 
 1935          1547.24052008948 
 1936          1616.29259484576 
 1937          1611.96026105751 
 1938          1457.20835786933 
 1939          1414.52659833017 
 1940          1386.86121018681 
 1941          1433.76774977933 
 1942          1485.61979557904 
 1943          1523.46626669191 
 1944          1551.70266182254 
 1945          1580.91715635107 
 1946          1592.30296848752 
 1947          1601.74511938376 
 1948          1531.9427576677 
 1949          1553.04317690482 
 1950          1564.66030793279 
 1951          1563.07382650118 
 1952          1546.8966874792 
 1953          1513.75525609866 
 1954          1494.50285712443 
 1955          1467.52181999162 
 1956          1488.75111546121 
 1957          1516.25021145042 
 1958          1528.806297074 
 1959          1431.55541231955 
 1960          1442.90041709849 
 1961          1555.05426734117 
 1962          1540.57108781499 
 1963          1449.33179938396 
 1964          1487.30015679267 
 1965          1489.41257557194 
 1966          1552.61893825384 
 1967          1545.98808849062 
 1968          1568.98318803667 
 1969          1530.90341933143 
 1970          1424.32340748417 
 1971          1305.08117125275 
 1972          1241.74227296476 
 1973          1339.06852500373 
 1974          1425.69891083187 
 1975          1406.24275388829 
 1976          1291.89575751731 
 1977          1334.857805498 
 1978          1455.77229112998 
 1979          1436.04422498371 
 1980          1370.48248421793 
 1981          1341.29377945389 
 1982          1333.26719091577 
 1983          1317.35916216491 
 1984          1373.28776284843 
 1985          1290.5323575357 
 1986          1353.47870678072 
 1987          1415.11239512084 
 1988          1499.21913676397 
 1989          1450.74322089248 
 1990          1383.68059819514 
 1991          1241.25078244947 
 1992          1204.41179223998 
 1993          1219.7732179523 
 1994          1256.87291709173 
 1995          1165.74247575877 
 1996          1187.01465974209 
 1997          1271.14119208911 
 1998          1316.25275718705 
 1999          1291.99304598082 
 2000          1215.69937275947 
 2001          1336.51477945615 
 2002          1385.75094751939 
 2003          1364.42402441739 
 2004          1309.78603066106 
 2005          1283.67209591704 
 2006          1298.87488861062 
 2007          1290.11078782883 
 2008          1245.98944135938 
 2009          1256.92432959061 
 2010          1332.30007029462 
 2011          1255.9415719382 
 2012          1288.24839608532 
 2013          1292.73104487478 
 2014          1300.83381093715 
 2015          1197.90059202228 
 2016          1163.18067341122 
 2017          1208.8802326585 
 2018          1110.35111172891 
 2019          1092.48642693407 
 2020          1129.0459213172 
 2021          1253.48615364638 
 2022          1243.72914374278 
 2023          1144.78910426174 
 2024          1095.49593779907 
 2025          1072.09821628966 
 2026          1107.0356943519 
 2027          1137.09708549385 
 2028          1166.92037481555 
 2029          1228.62406795658 
 2030          1356.31281333597 
 2031          1306.00088250612 
 2032          1223.1811763083 
 2033          1166.1914734625 
 2034          1200.15674536854 
 2035          1271.34473953591 
 2036          1277.90209654702 
 2037          1267.63043880017 
 2038          1157.27987978663 
 2039          1123.98560882468 
 2040          1122.23440722699 
 2041          1147.69481100189 
 2042          1083.18248357554 
 2043          1069.98393920748 
 2044          1068.24470873334 
 2045          1040.55777722231 
 2046          1021.45891342458 
 2047          902.870578473815 
 2048          878.538864312734 
 2049          965.537511641382 
 2050          1024.44838130129 
 2051          1107.8904295206 
 2052          1146.53299626299 
 2053          1023.06187733692 
 2054          972.530430658592 
 2055          940.066268569018 
 2056          973.192448886539 
 2057          1006.53087569358 
 2058          1067.62321047681 
 2059          1037.83153414447 
 2060          1023.36540718915 
 2061          1020.60983373066 
 2062          1024.78610631994 
 2063          1053.54172267045 
 2064          1065.14736441296 
 2065          1080.61035640311 
 2066          1114.82098460343 
 2067          1083.491760558 
 2068          1089.64974409736 
 2069          1082.20761599068 
 2070          1111.63613679885 
 2071          1056.72782709861 
 2072          1062.98287858299 
 2073          1075.04697357168 
 2074          1061.26135059491 
 2075          934.780607111079 
 2076          926.718178234434 
 2077          903.037002656093 
 2078          1051.25146214194 
 2079          1133.32905129362 
 2080          1060.62529763971 
 2081          940.53393945073 
 2082          929.819210017033 
 2083          1170.71270025113 
 2084          1125.65557690406 
 2085          1075.1329144533 
 2086          970.170591863407 
 2087          864.197318830142 
 2088          956.666423716599 
 2089          1035.72503697921 
 2090          1128.73957427535 
 2091          1105.37743776337 
 2092          1092.21283532472 
 2093          984.246125571995 
 2094          927.753970825989 
 2095          1088.87080098063 
 2096          1283.32201235241 
 2097          1241.73209170104 
 2098          1023.85836179458 
 2099          998.417959633931 
 2100          1039.59374158409 
 2101          1057.76317337979 
 2102          1026.12746637336 
 2103          1052.80156466363 
 2104          1099.9986979601 
 2105          1121.94576960829 
 2106          1083.32010545552 
 2107          1131.44286917783 
 2108          1152.38054315208 
 2109          965.076095749631 
 2110          821.688009741044 
 2111          864.779663135837 
 2112          967.812125940509 
 2113          1067.01232682109 
 2114          1114.50523213708 
 2115          1142.55737256595 
 2116          1062.3345540405 
 2117          1014.12831949042 
 2118          978.546218318522 
 2119          975.078370587099 
 2120          963.148291466077 
 2121          900.324104197788 
 2122          894.783309241482 
 2123          991.763908978998 
 2124          993.665496032131 
 2125          965.407484199152 
 2126          941.013425801708 
 2127          1014.29732880447 
 2128          1033.25279106237 
 2129          1038.03041008701 
 2130          1041.73244448424 
 2131          1100.52453112434 
 2132          1081.66977254398 
 2133          976.865080414123 
 2134          875.30952031343 
 2135          941.949430191563 
 2136          1053.82143367354 
 2137          1087.00551032095 
 2138          1024.75256434237 
 2139          962.511040843967 
 2140          934.633737476881 
 2141          933.998615801248 
 2142          956.38236990174 
 2143          972.045779874629 
 2144          806.520975510179 
 2145          801.269842490832 
 2146          1004.64574085449 
 2147          1112.62397324522 
 2148          1044.19253285597 
 2149          976.119038705053 
 2150          914.372142981559 
 2151          920.436168450341 
 2152          911.769595540092 
 2153          917.104356284775 
 2154          957.549273060582 
 2155          970.341238949582 
 2156          908.801464686804 
 2157          850.919782629058 
 2158          879.311232579342 
 2159          927.678387007703 
 2160          997.520496736492 
 2161          981.174223569945 
 2162          965.10839584391 
 2163          910.759807656588 
 2164          886.235745983563 
 2165          852.030596450378 
 2166          954.744684417685 
 2167          984.10986937895 
 2168          997.503095900936 
 2169          1018.94444140552 
 2170          982.679647284361 
 2171          1003.85946926328 
 2172          999.980192151453 
 2173          1019.87899302403 
 2174          1063.00813302382 
 2175          1050.60085197098 
 2176          1052.81811000187 
 2177          1016.78490019781 
 2178          950.602337796802 
 2179          904.849451584061 
 2180          927.080454079798 
 2181          1093.59460650409 
 2182          1155.34424576109 
 2183          1139.20758656867 
 2184          971.253983197709 
 2185          910.806233139038 
 2186          913.187618939265 
 2187          975.762473832648 
 2188          1026.45369426287 
 2189          1048.41621114685 
 2190          1067.61025598366 
 2191          927.142755939216 
 2192          924.141587455808 
 2193          1006.55705560211 
 2194          957.650891006619 
 2195          929.188519178401 
 2196          948.994049258494 
 2197          952.753898579883 
 2198          888.501338618004 
 2199          922.382223488091 
 2200          941.787267571629 
 2201          981.502280360197 
 2202          1053.33988085324 
 2203          1048.99873874156 
 2204          1025.77500409605 
 2205          955.54727162445 
 2206          814.720997120435 
 2207          854.645823878427 
 2208          912.354726669623 
 2209          956.090418589744 
 2210          904.528747254272 
 2211          846.861729241476 
 2212          910.415122356967 
 2213          932.690540072854 
 2214          846.812594774898 
 2215          814.333435831249 
 2216          844.549313129025 
 2217          989.613303420543 
 2218          1014.10190262969 
 2219          1039.8062280732 
 2220          978.634752776766 
 2221          955.847406380895 
 2222          964.468453766307 
 2223          967.026901328239 
 2224          946.149536781737 
 2225          888.98828494848 
 2226          875.622197772965 
 2227          819.623423677764 
 2228          765.53060546266 
 2229          777.42622376714 
 2230          838.019944735921 
 2231          867.663442405216 
 2232          926.441268175833 
 2233          982.255999276743 
 2234          852.069136617226 
 2235          728.299730614091 
 2236          846.578903363352 
 2237          911.921704111586 
 2238          856.574722371611 
 2239          810.206390324224 
 2240          785.444208925129 
 2241          759.52934131281 
 2242          766.4962642797 
 2243          804.299089021464 
 2244          827.653449230523 
 2245          795.846753509601 
 2246          827.097203869142 
 2247          876.540280955469 
 2248          778.143473024111 
 2249          778.679560885809 
 2250          795.063315252316 
 2251          737.72798322897 
 2252          775.689097470599 
 2253          817.97088065294 
 2254          774.239185577917 
 2255          756.156590824408 
 2256          797.655336569148 
 2257          807.730367272088 
 2258          821.830121100142 
 2259          675.240919863014 
 2260          645.139279922032 
 2261          720.538137755377 
 2262          719.605042230541 
 2263          656.907090570634 
 2264          675.236283145971 
 2265          631.672772313321 
 2266          584.085559637258 
 2267          676.760276974613 
 2268          700.329074822577 
 2269          696.110806564883 
 2270          683.458349599483 
 2271          654.590029096265 
 2272          603.312183781123 
 2273          580.541958734577 
 2274          635.156818913304 
 2275          675.147584373042 
 2276          631.839467619443 
 2277          609.010422517703 
 2278          649.544558459491 
 2279          582.493792868483 
 2280          486.142792351695 
 2281          590.5925540355 
 2282          723.622610762734 
 2283          803.219864899775 
 2284          799.249551047223 
 2285          753.06049547843 
 2286          691.418772560081 
 2287          623.250145736726 
 2288          612.377961092521 
 2289          663.765597106395 
 2290          662.893327240299 
 2291          545.790543392508 
 2292          461.110688429739 
 2293          523.122712990618 
 2294          640.917399301062 
 2295          776.080514740221 
 2296          721.525596667782 
 2297          658.882623213643 
 2298          562.49759008586 
 2299          536.269057604294 
 2300          625.16227387803 
 2301          645.968770991581 
 2302          655.41693460926 
 2303          620.526574102142 
 2304          668.407325237306 
 2305          707.667110784838 
 2306          669.246737527077 
 2307          583.894696057746 
 2308          539.836647738799 
 2309          560.210893819954 
 2310          614.560671409447 
 2311          679.992204638318 
 2312          693.992664092942 
 2313          708.975285243204 
 2314          752.529252541604 
 2315          685.783695714763 
 2316          597.207699085673 
 2317          549.441479588208 
 2318          684.756009110817 
 2319          763.579198058767 
 2320          701.117411090204 
 2321          595.201252089652 
 2322          575.443700190102 
 2323          628.025850425927 
 2324          680.898891822261 
 2325          654.638331768104 
 2326          635.967792913167 
 2327          631.914107761747 
 2328          606.399516535648 
 2329          616.355536126568 
 2330          564.439097757527 
 2331          481.247464683212 
 2332          462.220001784005 
 2333          486.578839578549 
 2334          596.215318202317 
 2335          522.415305308856 
 2336          490.227915436327 
 2337          419.362785019855 
 2338          296.584108270876 
 2339          318.879973829099 
##END=
