##TITLE=2-propanol 1.jdx
##JCAMP-DX=5.00
##DATE=7/14/2010 2:15:42 PM
##DATATYPE=Raman Spectrum
##DATA CLASS=XYDATA
##ORIGIN=ENWAVE
##OWNER=ENWAVE
##NPOINTS=2090
##FIRSTX= 1
##LASTX= 2339
##MAXX= 2339
##MINX= 1
##XFACTOR=1.0000000000
##YFACTOR=1.0000000000
##FIRSTY= 47.4429230877753
##DELTAX=1.000000000000
##XUNITS=1/CM
##YUNITS=ARBITRARY UNITS
##XYDATA=(X++(Y..Y))
 1             47.4429230877753 
 251           47.4429230877753 
 252           127.481120452855 
 253           308.325939606463 
 254           489.61331027748 
 255           669.686745398695 
 256           808.958071492219 
 257           860.54004956841 
 258           908.860534538314 
 259           952.319093517791 
 260           946.176613333313 
 261           945.925798070619 
 262           939.976019297512 
 263           907.048012164457 
 264           917.389164754959 
 265           948.499671002572 
 266           963.951533053156 
 267           1004.22489949118 
 268           1024.03175456025 
 269           988.97368385136 
 270           952.986514875492 
 271           936.377166310422 
 272           930.191256543974 
 273           916.709789182417 
 274           921.263564666733 
 275           922.395501015999 
 276           861.457954709226 
 277           840.350453476466 
 278           873.199891709712 
 279           879.809702138696 
 280           928.137034951508 
 281           985.985870886882 
 282           959.114436378154 
 283           913.637802442431 
 284           879.666128009715 
 285           845.308349560381 
 286           814.602719248961 
 287           799.348807168102 
 288           801.221175353951 
 289           797.384475188982 
 290           781.762712184852 
 291           756.750985960828 
 292           726.380283969209 
 293           717.852665677995 
 294           741.133725546848 
 295           770.54806889484 
 296           782.703925320424 
 297           788.309797621719 
 298           819.501856447636 
 299           850.035246284816 
 300           851.548562105779 
 301           823.99213670904 
 302           814.867903677206 
 303           816.919758677323 
 304           796.38408616077 
 305           770.145025524686 
 306           756.982834807037 
 307           752.499823227946 
 308           723.169674466453 
 309           704.370796950389 
 310           727.376553001428 
 311           764.193211905992 
 312           784.288927663052 
 313           781.260608917901 
 314           774.034276898487 
 315           767.750184770655 
 316           767.352994336987 
 317           780.604838201526 
 318           808.834773437844 
 319           817.621372067831 
 320           779.93196329102 
 321           751.05279888475 
 322           749.524077757188 
 323           760.453904771766 
 324           766.20357808333 
 325           778.988990009187 
 326           802.579453498445 
 327           814.157364115188 
 328           829.7647577743 
 329           861.377217503671 
 330           895.088177748799 
 331           901.522561375793 
 332           896.817811132432 
 333           909.184388701995 
 334           879.023317005111 
 335           843.290617220577 
 336           854.064433277947 
 337           836.591467723973 
 338           821.540371862134 
 339           846.367084603361 
 340           861.832022610173 
 341           868.180462026641 
 342           877.456694248733 
 343           893.774919120756 
 344           940.896914272885 
 345           980.177278633612 
 346           948.648872882241 
 347           905.763940004934 
 348           885.000186732991 
 349           895.540328890257 
 350           964.614448883864 
 351           1051.59220238028 
 352           1114.52659265872 
 353           1167.86557426313 
 354           1213.84552759803 
 355           1266.07736873302 
 356           1350.87989972981 
 357           1454.84051511333 
 358           1533.40922693748 
 359           1561.57082330786 
 360           1620.1637551317 
 361           1748.89160318587 
 362           1924.31108444413 
 363           2089.72051504092 
 364           2301.39664922811 
 365           2552.99398911993 
 366           2708.8123747475 
 367           2855.23169100954 
 368           2977.77231322316 
 369           2952.79259068052 
 370           2924.23888291257 
 371           2873.5318094029 
 372           2703.47207097949 
 373           2527.55525245984 
 374           2346.11811397512 
 375           2143.93374565463 
 376           1992.99117170419 
 377           1851.34284935683 
 378           1715.99975585939 
 379           1651.56193373581 
 380           1593.34603057892 
 381           1528.49971613059 
 382           1491.64258105624 
 383           1455.49042250051 
 384           1420.15940194548 
 385           1397.5960801397 
 386           1382.56981153104 
 387           1380.29755151317 
 388           1366.8411005657 
 389           1304.58790023465 
 390           1270.94119747968 
 391           1269.5260742777 
 392           1252.18507671748 
 393           1270.38636995292 
 394           1320.05445451528 
 395           1363.0126628277 
 396           1381.31735726618 
 397           1378.52171192376 
 398           1394.46144804591 
 399           1474.86309446488 
 400           1551.0933020879 
 401           1610.51658768233 
 402           1675.1139079953 
 403           1679.59995278251 
 404           1648.42566256911 
 405           1633.25339131374 
 406           1640.13137779433 
 407           1722.8584474632 
 408           1864.66808664073 
 409           1980.56051484205 
 410           2107.93558073683 
 411           2240.07028356251 
 412           2342.48132528399 
 413           2445.01451210102 
 414           2562.29209895474 
 415           2695.58547276645 
 416           2842.24842527394 
 417           2986.85632986852 
 418           3110.24149099603 
 419           3199.98545198712 
 420           3264.55074535315 
 421           3323.24819761833 
 422           3393.00319526084 
 423           3469.26664266293 
 424           3493.6795587139 
 425           3452.03780019478 
 426           3407.61498579477 
 427           3400.32948201302 
 428           3402.3042279198 
 429           3372.22437112384 
 430           3352.10786918737 
 431           3348.05289936216 
 432           3335.36130318312 
 433           3291.45301041716 
 434           3243.31357537951 
 435           3179.45782011582 
 436           3084.17734835406 
 437           3071.89326441174 
 438           3074.40859063752 
 439           2998.09570186508 
 440           2923.03531763533 
 441           2826.00527452733 
 442           2732.09440357608 
 443           2719.81799507677 
 444           2675.77574818479 
 445           2593.09510111239 
 446           2527.35499627406 
 447           2441.57007491238 
 448           2347.09695251598 
 449           2271.78973181986 
 450           2220.93574150582 
 451           2165.77859819222 
 452           2105.69816384512 
 453           2048.12593934863 
 454           1957.72243446507 
 455           1868.21552759823 
 456           1799.35997873884 
 457           1712.63924084738 
 458           1638.73788788971 
 459           1611.43139717508 
 460           1618.98812431464 
 461           1585.93688924161 
 462           1539.9558700175 
 463           1531.96617951559 
 464           1557.37133271764 
 465           1616.34191251715 
 466           1682.78524462831 
 467           1719.45340743226 
 468           1734.09658854656 
 469           1756.12929914541 
 470           1798.44416663874 
 471           1849.27872190695 
 472           1960.36211204629 
 473           2126.24702888269 
 474           2295.68538857573 
 475           2491.06149886283 
 476           2715.22903284897 
 477           2971.11363197386 
 478           3280.90127159331 
 479           3617.54288155177 
 480           3906.42906463659 
 481           4085.59898822075 
 482           4202.69066897397 
 483           4285.2461064431 
 484           4317.32125454335 
 485           4267.65420072731 
 486           4190.28236948163 
 487           4088.42106503407 
 488           3927.77197261743 
 489           3750.67780910513 
 490           3582.80769981949 
 491           3406.19816017003 
 492           3184.24869630997 
 493           2973.60358830596 
 494           2780.36113411663 
 495           2576.07186039546 
 496           2394.93444022444 
 497           2235.82539241969 
 498           2077.72204712303 
 499           1904.7338867383 
 500           1718.57278724947 
 501           1558.57513431711 
 502           1473.12421646638 
 503           1463.8657985887 
 504           1439.8870955163 
 505           1377.07697950639 
 506           1333.50001888141 
 507           1255.91286046447 
 508           1156.5872476144 
 509           1065.69053544537 
 510           960.920022573941 
 511           918.633221685205 
 512           921.232162016402 
 513           889.776568978287 
 514           913.677994340728 
 515           944.276800823002 
 516           929.556130867909 
 517           926.147657940998 
 518           899.752086960996 
 519           867.446068817188 
 520           871.903136615258 
 521           872.181983904867 
 522           857.807588566583 
 523           828.299231802258 
 524           781.127808912188 
 525           742.599271360351 
 526           743.223584995269 
 527           754.752948814691 
 528           686.049884790517 
 529           642.592671222121 
 530           638.429188282599 
 531           610.625831947585 
 532           668.761286505656 
 533           716.685661123848 
 534           674.560853350714 
 535           627.81993044107 
 536           587.627065070518 
 537           554.898401821213 
 538           541.950798245261 
 539           560.60035426192 
 540           585.94019898229 
 541           590.841234175062 
 542           574.777900961685 
 543           573.534267002983 
 544           578.187447911823 
 545           579.235346011631 
 546           593.115884438433 
 547           590.749849497071 
 548           595.919729408212 
 549           631.789430912413 
 550           636.09769707692 
 551           616.56161770051 
 552           595.179461823418 
 553           579.072213121033 
 554           580.934547549243 
 555           626.184312974179 
 556           662.058253623175 
 557           586.536387270324 
 558           541.404974469448 
 559           522.956586239681 
 560           484.911525776241 
 561           535.164067906262 
 562           583.710191233767 
 563           586.928574833539 
 564           593.674256470378 
 565           601.281243624844 
 566           608.615771971197 
 567           615.552233197358 
 568           620.658803766143 
 569           629.692305791985 
 570           607.224696986832 
 571           558.412330883894 
 572           570.056191150421 
 573           616.116821612748 
 574           647.768389690271 
 575           645.716609888913 
 576           627.931111902621 
 577           593.845120284213 
 578           557.369674457883 
 579           541.777460380286 
 580           532.984204957627 
 581           523.197440330864 
 582           522.641854380398 
 583           546.259926923514 
 584           573.03577658271 
 585           570.644748836955 
 586           544.033612270242 
 587           537.144155126163 
 588           497.075317300464 
 589           459.831357644921 
 590           492.388331313025 
 591           546.713612487696 
 592           594.205836098599 
 593           619.485255935262 
 594           609.616327458858 
 595           567.158185231185 
 596           578.06057659937 
 597           632.56622988275 
 598           628.015588079553 
 599           626.574792721773 
 600           620.822042985742 
 601           603.50516596021 
 602           611.942542621933 
 603           575.07824253761 
 604           508.278684460258 
 605           475.458355330336 
 606           492.980704998927 
 607           542.753105324364 
 608           586.748559304336 
 609           608.999205901757 
 610           643.371183283117 
 611           677.690554429686 
 612           679.826500627423 
 613           646.145693435526 
 614           629.367522399551 
 615           612.08134430457 
 616           577.600607379424 
 617           543.365857216693 
 618           526.738638790832 
 619           516.872543071916 
 620           537.826408546499 
 621           617.031135963314 
 622           644.054111810739 
 623           641.857583006756 
 624           634.785625311913 
 625           580.131997171299 
 626           561.702468488715 
 627           564.44153885837 
 628           565.666719679724 
 629           603.536500007477 
 630           587.380475333805 
 631           557.482158801834 
 632           565.203817547021 
 633           539.131703110367 
 634           530.782388791242 
 635           539.1712567493 
 636           531.738451254884 
 637           529.767249537527 
 638           542.45354656303 
 639           554.341928911479 
 640           554.815568465384 
 641           560.495514008692 
 642           542.13453300956 
 643           520.516817274887 
 644           516.857898373129 
 645           468.031306575357 
 646           436.871704966647 
 647           441.906091749784 
 648           455.955625849722 
 649           509.70513634665 
 650           548.16377773349 
 651           558.201826948474 
 652           573.83681493887 
 653           580.57779838911 
 654           573.39508331266 
 655           569.154707008143 
 656           579.830487394246 
 657           582.005454191194 
 658           607.710843650292 
 659           653.920481233675 
 660           676.162219335898 
 661           669.371789257457 
 662           646.318260527836 
 663           603.019893147819 
 664           542.244553820374 
 665           522.922431019096 
 666           543.97172330627 
 667           563.425519579245 
 668           555.525071056615 
 669           553.04640035224 
 670           531.780620397499 
 671           524.598028399936 
 672           579.291324018501 
 673           603.263799019987 
 674           586.903820524995 
 675           567.926057702022 
 676           554.591172996259 
 677           499.417957276367 
 678           492.641336671267 
 679           531.569806955457 
 680           543.851127174093 
 681           586.989484686401 
 682           613.541066445201 
 683           599.013132973976 
 684           580.495497747152 
 685           585.029472333152 
 686           578.852052022173 
 687           555.202708227214 
 688           536.612364340413 
 689           528.597597847679 
 690           555.995900221535 
 691           587.339633470987 
 692           576.472168243905 
 693           547.029705860407 
 694           542.514572782831 
 695           564.165840516299 
 696           573.798783471404 
 697           543.602509181715 
 698           525.099877924766 
 699           520.046531523376 
 700           511.114056160807 
 701           521.059043697062 
 702           551.288525188674 
 703           581.24267710726 
 704           596.332964756748 
 705           602.572659826507 
 706           603.58216573329 
 707           620.924055598644 
 708           651.077202453306 
 709           654.776611832994 
 710           624.174980756888 
 711           594.589766328791 
 712           585.143016150372 
 713           584.553738334488 
 714           598.475441515384 
 715           613.392257403277 
 716           600.251035445932 
 717           571.139919397588 
 718           609.710999162361 
 719           615.677208222787 
 720           590.170711992503 
 721           598.141484399689 
 722           575.550400455729 
 723           598.177085378794 
 724           641.557419667857 
 725           623.512070044906 
 726           560.068682151003 
 727           519.891198020838 
 728           523.029139107213 
 729           568.354403133679 
 730           644.708281236012 
 731           653.649922876131 
 732           644.388528072746 
 733           653.738152532153 
 734           632.268152597953 
 735           607.643082817811 
 736           613.113258171088 
 737           627.662915599246 
 738           624.903265663867 
 739           653.115155737615 
 740           663.296036847377 
 741           661.258285114733 
 742           679.284480866172 
 743           679.350039333597 
 744           671.287423261408 
 745           679.198206180322 
 746           699.72784085212 
 747           698.68767556129 
 748           670.898308932357 
 749           662.06825351219 
 750           682.61025842208 
 751           695.094666035033 
 752           706.322661666815 
 753           718.455347968162 
 754           718.753881436626 
 755           697.325979800647 
 756           672.3472441204 
 757           680.983259987722 
 758           703.790246441915 
 759           716.365266581496 
 760           737.951244915406 
 761           740.338086629639 
 762           735.814491234222 
 763           742.736930745431 
 764           754.586981373767 
 765           762.304432515479 
 766           719.263788902534 
 767           683.138680153309 
 768           735.286238192575 
 769           801.58905184916 
 770           853.525360522204 
 771           878.056595031691 
 772           878.441857722754 
 773           885.609091445538 
 774           923.124495671519 
 775           959.157695565262 
 776           965.910148147269 
 777           966.711364678341 
 778           1006.57849453344 
 779           1029.56928745 
 780           1042.2065268532 
 781           1088.77695341618 
 782           1138.85574200467 
 783           1171.06550150512 
 784           1199.70682580346 
 785           1229.5461862016 
 786           1252.81850652184 
 787           1314.29515781979 
 788           1395.45282794507 
 789           1448.58820701816 
 790           1484.39506639731 
 791           1595.85179365813 
 792           1755.41091159212 
 793           1907.22182893936 
 794           2039.80087519819 
 795           2172.05619843792 
 796           2281.34691599669 
 797           2493.42707615979 
 798           2805.82231534897 
 799           3121.88653383508 
 800           3526.94859676491 
 801           4052.4203381862 
 802           4740.24364416896 
 803           5609.69337759696 
 804           6685.05897623028 
 805           8157.32398793602 
 806           9976.91891860562 
 807           12641.9505938762 
 808           16333.9926939298 
 809           19845.67055141 
 810           24231.3861448101 
 811           29716.8598936803 
 812           35641.5208287571 
 813           41441.4913811735 
 814           46289.5213283754 
 815           48975.0439783562 
 816           48821.3698777295 
 817           45776.8168165535 
 818           40064.1210916478 
 819           32923.699787643 
 820           25493.7994277087 
 821           18824.5914307788 
 822           13750.3591959024 
 823           10123.6751112964 
 824           7748.0663106704 
 825           6171.85977493293 
 826           4986.37485935921 
 827           4189.64359182225 
 828           3599.96402456149 
 829           3186.04287179907 
 830           2852.28736683765 
 831           2487.77392653315 
 832           2283.13546990119 
 833           2174.39628922834 
 834           2080.19486678401 
 835           1979.13396780632 
 836           1865.61558407062 
 837           1751.73812279552 
 838           1658.44176021984 
 839           1557.7497259053 
 840           1442.47282635306 
 841           1390.87356855445 
 842           1374.82930891661 
 843           1348.98684490087 
 844           1305.57236386391 
 845           1266.55943706571 
 846           1244.2002283382 
 847           1244.98662334104 
 848           1228.15549709209 
 849           1179.55767888152 
 850           1129.24334982371 
 851           1042.49367212298 
 852           1013.98071841142 
 853           1029.26382244007 
 854           1019.90460395014 
 855           1015.43129440979 
 856           959.672190770717 
 857           931.724321331423 
 858           935.10531882903 
 859           906.322870781695 
 860           898.907511225649 
 861           840.342413093008 
 862           772.781763577367 
 863           747.3729128516 
 864           742.147610298992 
 865           766.786937404746 
 866           816.275639297171 
 867           849.783454089007 
 868           839.978700501088 
 869           804.439040723136 
 870           764.098294331027 
 871           725.779330895963 
 872           705.571984397764 
 873           705.391853201634 
 874           702.512384304675 
 875           705.682318575525 
 876           699.460889925191 
 877           681.591536569423 
 878           687.562558121947 
 879           744.56692006127 
 880           777.607521006003 
 881           788.380862348264 
 882           770.061792784058 
 883           727.03280400918 
 884           735.084933596583 
 885           743.924258238094 
 886           747.306526426201 
 887           771.971928119851 
 888           813.189416979116 
 889           829.483320101348 
 890           828.343456772054 
 891           821.582497011923 
 892           828.883573416609 
 893           861.705601575549 
 894           899.829111882631 
 895           959.84133318296 
 896           979.950853594801 
 897           969.785281137973 
 898           987.833627888722 
 899           967.91115922593 
 900           1000.62155949855 
 901           1037.65672244087 
 902           1070.08791183524 
 903           1154.79936135429 
 904           1199.8810954741 
 905           1294.23613918038 
 906           1433.50196209757 
 907           1534.9725058603 
 908           1593.36270803565 
 909           1690.04677170757 
 910           1694.94878189619 
 911           1696.07295951765 
 912           1784.02673299146 
 913           1899.39703590679 
 914           2015.62184935663 
 915           2114.59697616531 
 916           2204.62261389365 
 917           2292.80192044221 
 918           2361.3337402343 
 919           2405.54774910253 
 920           2521.29603874518 
 921           2635.2723466216 
 922           2749.27116820462 
 923           2912.44470641631 
 924           3028.33831247412 
 925           3253.79118198568 
 926           3529.64356923113 
 927           3801.88228200561 
 928           4073.15687125475 
 929           4273.55884452778 
 930           4458.97053792407 
 931           4540.20856930099 
 932           4560.78924497862 
 933           4581.37280619572 
 934           4493.74276268336 
 935           4386.12120146077 
 936           4327.05533407927 
 937           4315.88017665426 
 938           4346.86772192896 
 939           4411.35396163542 
 940           4449.11090908382 
 941           4668.06831225144 
 942           5036.3210404522 
 943           5417.12893895793 
 944           5826.88869491063 
 945           6297.86631091212 
 946           6774.27089349792 
 947           7225.22794916231 
 948           7527.43370712122 
 949           7576.32479297583 
 950           7492.80220669018 
 951           7262.35093607416 
 952           7058.64411679075 
 953           6691.38908383188 
 954           5993.41493882049 
 955           5326.22309550185 
 956           4601.75171664433 
 957           3915.60024936223 
 958           3348.94901618273 
 959           2917.38796334501 
 960           2614.97527374453 
 961           2333.24165698508 
 962           2102.00793932706 
 963           1851.34000482931 
 964           1642.67240853194 
 965           1574.47699389127 
 966           1465.06499613685 
 967           1463.52666591466 
 968           1455.56065267834 
 969           1414.56264940792 
 970           1394.15774779799 
 971           1306.18510529632 
 972           1238.44637637916 
 973           1177.40817270303 
 974           1135.04888090331 
 975           1106.86750704053 
 976           1065.8397801029 
 977           1082.46422053892 
 978           1115.0515482167 
 979           1099.04091890522 
 980           1062.99967570739 
 981           1044.8082796297 
 982           1003.64714911637 
 983           990.126946020348 
 984           959.356429517795 
 985           929.630269276062 
 986           913.932097616354 
 987           879.376844351208 
 988           878.729082216354 
 989           859.929934006253 
 990           845.821404151535 
 991           838.033270679509 
 992           805.326071095776 
 993           776.030683307296 
 994           775.196597309776 
 995           780.586725235262 
 996           815.647014346243 
 997           831.200039816821 
 998           757.38799534783 
 999           712.021973152885 
 1000          695.226388690317 
 1001          711.261534155988 
 1002          728.851219311608 
 1003          704.283271228309 
 1004          657.797843499479 
 1005          645.128032744231 
 1006          656.89652465544 
 1007          647.867363535444 
 1008          637.193109796475 
 1009          648.181041341879 
 1010          631.483483605101 
 1011          644.282173581786 
 1012          649.140010580984 
 1013          650.789324300209 
 1014          672.704859300542 
 1015          687.102698879122 
 1016          674.398928437547 
 1017          672.853654592415 
 1018          662.57585676152 
 1019          610.787640861134 
 1020          565.734799801823 
 1021          585.542432098732 
 1022          589.597251290731 
 1023          627.098761008184 
 1024          583.048069079123 
 1025          511.146725574763 
 1026          521.755252608713 
 1027          525.12838688345 
 1028          566.627861909286 
 1029          588.235549968841 
 1030          596.093612000487 
 1031          608.916360205119 
 1032          602.564384541768 
 1033          584.339083051716 
 1034          624.529338985517 
 1035          672.378015233361 
 1036          668.216144256011 
 1037          643.741859176561 
 1038          645.476064293527 
 1039          659.279596280663 
 1040          724.585309391979 
 1041          706.454736316134 
 1042          659.28715382167 
 1043          635.724980559486 
 1044          594.927615158467 
 1045          604.843223097407 
 1046          681.696618341177 
 1047          732.029687822471 
 1048          740.180264866413 
 1049          726.333049836897 
 1050          698.424930243064 
 1051          691.11578201554 
 1052          698.003915568515 
 1053          697.769732351039 
 1054          731.38533699748 
 1055          813.63722455394 
 1056          881.88814164033 
 1057          889.474115172538 
 1058          872.066179853849 
 1059          795.157929340126 
 1060          761.207421878797 
 1061          789.968600853954 
 1062          811.717280352237 
 1063          846.834682871362 
 1064          830.702159831338 
 1065          786.294221625827 
 1066          752.048240476962 
 1067          755.677145456226 
 1068          781.439509169169 
 1069          804.333912229655 
 1070          885.590419122468 
 1071          940.590684617766 
 1072          986.890991359551 
 1073          1013.54031674871 
 1074          992.31809865499 
 1075          978.415541450274 
 1076          1006.84216572053 
 1077          1039.12622805745 
 1078          1105.1586682948 
 1079          1189.47772159079 
 1080          1252.04370276605 
 1081          1296.63698457026 
 1082          1335.58293810836 
 1083          1379.9305115772 
 1084          1469.77239078491 
 1085          1538.42770768628 
 1086          1560.67300306737 
 1087          1603.05962027833 
 1088          1673.16888317964 
 1089          1725.63227551324 
 1090          1843.27578221813 
 1091          2013.67977845472 
 1092          2147.28375771816 
 1093          2225.22372336539 
 1094          2322.82857921586 
 1095          2480.71068820204 
 1096          2662.60461449098 
 1097          2852.50361394153 
 1098          3002.9564946376 
 1099          3151.05989606623 
 1100          3327.41772188417 
 1101          3430.63006661483 
 1102          3532.97639563797 
 1103          3667.07120803441 
 1104          3781.99781779653 
 1105          3890.39346598394 
 1106          4017.13083060149 
 1107          4103.9655355278 
 1108          4115.30409058105 
 1109          4109.7024542491 
 1110          4141.65968349251 
 1111          4160.31474004731 
 1112          4142.74347152766 
 1113          4134.90512757174 
 1114          4128.35966418811 
 1115          4075.04085359275 
 1116          4063.58287876638 
 1117          4054.48929698085 
 1118          4117.26159778128 
 1119          4284.50121325976 
 1120          4435.38696341236 
 1121          4562.75496240791 
 1122          4784.10548233637 
 1123          5018.45034279252 
 1124          5250.00368555156 
 1125          5479.6286760031 
 1126          5668.03192423556 
 1127          5810.77207517459 
 1128          5932.57575185688 
 1129          5958.58255672262 
 1130          5875.57658372394 
 1131          5702.57927645963 
 1132          5466.06267578016 
 1133          5201.22174804446 
 1134          4918.55071391922 
 1135          4594.53159252355 
 1136          4293.05948181627 
 1137          4070.91928566923 
 1138          3858.54524812097 
 1139          3635.50023460024 
 1140          3429.86623085686 
 1141          3213.8765143118 
 1142          3002.58201144734 
 1143          2843.54710807761 
 1144          2748.9408945775 
 1145          2746.68206621689 
 1146          2768.10033640333 
 1147          2732.08576014662 
 1148          2701.32203804599 
 1149          2731.97921706416 
 1150          2710.88563461515 
 1151          2701.07245685999 
 1152          2671.20291235077 
 1153          2714.88852538381 
 1154          2854.07514498565 
 1155          2960.18522227019 
 1156          3113.72177607142 
 1157          3122.57774921595 
 1158          3148.84575250417 
 1159          3160.49178356043 
 1160          3216.84260141712 
 1161          3333.76480281468 
 1162          3348.13777365887 
 1163          3283.00793341629 
 1164          3170.62712825015 
 1165          3061.16948951882 
 1166          2982.34103210919 
 1167          2824.98102851592 
 1168          2594.8483226563 
 1169          2396.05272957826 
 1170          2203.38769896328 
 1171          2052.73120790217 
 1172          1908.6188895155 
 1173          1750.16367000451 
 1174          1610.11640262142 
 1175          1452.89663397737 
 1176          1335.89941802129 
 1177          1349.78137194705 
 1178          1339.12732931633 
 1179          1421.66220198563 
 1180          1355.4220406207 
 1181          1243.94394439935 
 1182          1140.34871539466 
 1183          1025.3352860888 
 1184          997.830570586024 
 1185          1053.33762333166 
 1186          1073.55155408187 
 1187          1083.30259982118 
 1188          1036.1233527007 
 1189          967.966855342213 
 1190          931.332097115043 
 1191          946.932744283963 
 1192          982.187043585762 
 1193          942.256135365047 
 1194          890.286321742769 
 1195          855.727016630242 
 1196          892.325612287128 
 1197          944.589234056071 
 1198          922.454516670649 
 1199          834.543445626184 
 1200          759.584848641951 
 1201          752.882699440431 
 1202          812.919480036448 
 1203          884.630985990542 
 1204          878.476999696454 
 1205          861.245959204114 
 1206          856.558235522412 
 1207          839.524036920695 
 1208          847.306582272627 
 1209          807.126439794566 
 1210          777.831131372639 
 1211          780.970946706146 
 1212          758.923764305529 
 1213          749.154114799291 
 1214          768.898145339787 
 1215          797.167973118197 
 1216          828.960512902195 
 1217          783.084331981373 
 1218          735.743966045569 
 1219          728.488432930335 
 1220          747.890231171089 
 1221          809.552341770569 
 1222          847.361413384109 
 1223          803.697207557868 
 1224          748.85829566441 
 1225          720.984523001142 
 1226          733.301236088203 
 1227          774.277159164561 
 1228          788.783394507639 
 1229          737.744912753078 
 1230          689.648655102965 
 1231          681.385704669365 
 1232          704.673436560897 
 1233          784.297881141853 
 1234          795.821438998507 
 1235          816.525679460143 
 1236          826.290968442028 
 1237          835.072215025106 
 1238          821.600906045824 
 1239          807.867958022274 
 1240          795.251287605082 
 1241          740.877115010836 
 1242          764.389616264145 
 1243          811.812158024523 
 1244          799.79450715571 
 1245          764.079230322592 
 1246          738.418227543083 
 1247          747.288856008134 
 1248          775.475844378544 
 1249          787.903912083502 
 1250          790.159732565129 
 1251          769.971628341861 
 1252          790.345795690277 
 1253          788.40070536308 
 1254          835.897854710001 
 1255          841.700184427756 
 1256          781.984944630395 
 1257          774.151155332496 
 1258          802.735333314424 
 1259          799.827265129039 
 1260          836.977408006447 
 1261          898.892588141061 
 1262          902.931901467608 
 1263          908.870701765744 
 1264          907.277944477146 
 1265          907.124072132575 
 1266          939.119584222141 
 1267          956.270511001604 
 1268          959.299229635135 
 1269          996.575596740179 
 1270          990.323965436268 
 1271          909.652932467888 
 1272          929.907980637671 
 1273          974.30098058082 
 1274          1060.2261524936 
 1275          1135.5670345802 
 1276          1094.43476650245 
 1277          1103.52330831127 
 1278          1107.80370421824 
 1279          1161.51812878701 
 1280          1226.20242598622 
 1281          1268.10220757064 
 1282          1276.07538179811 
 1283          1296.15582269972 
 1284          1362.31645187314 
 1285          1415.42104373529 
 1286          1427.03719176573 
 1287          1465.87051518043 
 1288          1487.71345799242 
 1289          1505.01789942191 
 1290          1579.76536536333 
 1291          1680.73597907069 
 1292          1722.93529989756 
 1293          1701.60435619722 
 1294          1677.10362865285 
 1295          1694.41676856081 
 1296          1767.21486358419 
 1297          1867.35055431191 
 1298          1936.67276831355 
 1299          1972.6682705474 
 1300          1993.46460941114 
 1301          2017.81453031237 
 1302          2020.27614003463 
 1303          2029.1115094484 
 1304          2023.94879669356 
 1305          2003.23019419771 
 1306          2040.45934983155 
 1307          2072.05931115013 
 1308          2138.23275944538 
 1309          2144.53428844572 
 1310          2169.24633018912 
 1311          2149.26377805796 
 1312          2121.89871824141 
 1313          2121.30412540432 
 1314          2137.30082715509 
 1315          2163.73246529401 
 1316          2173.93798362771 
 1317          2150.67156129677 
 1318          2095.09659211046 
 1319          2151.35820454374 
 1320          2169.90928653307 
 1321          2231.5721626519 
 1322          2245.05130393539 
 1323          2234.98460417037 
 1324          2237.65604479339 
 1325          2330.78765891696 
 1326          2500.06328925086 
 1327          2569.26748887271 
 1328          2671.08183054656 
 1329          2733.21507474296 
 1330          2795.52490797484 
 1331          2866.69304600953 
 1332          2950.14771822561 
 1333          3069.65426894194 
 1334          3223.4799402623 
 1335          3423.31338168258 
 1336          3591.96384279819 
 1337          3664.9471698466 
 1338          3724.74716733346 
 1339          3759.74943747888 
 1340          3767.7403673118 
 1341          3746.1805725707 
 1342          3592.50928646933 
 1343          3460.71956536781 
 1344          3333.28537117647 
 1345          3179.40115179903 
 1346          2994.95242816934 
 1347          2824.43768715002 
 1348          2707.90247329876 
 1349          2598.49028448745 
 1350          2484.28843341803 
 1351          2365.94260484376 
 1352          2306.15908552141 
 1353          2242.38895421054 
 1354          2205.0735027871 
 1355          2145.74390962877 
 1356          2131.09419942058 
 1357          2156.00837120479 
 1358          2153.79979402283 
 1359          2134.57334600678 
 1360          2097.57642654316 
 1361          2050.03310271479 
 1362          2046.85622807809 
 1363          2011.97881144813 
 1364          1970.85248141367 
 1365          1997.64883219685 
 1366          2033.26923957887 
 1367          2077.9296895554 
 1368          2038.84197144068 
 1369          1988.47727997974 
 1370          1958.6796460081 
 1371          1949.85939667041 
 1372          1973.0957492253 
 1373          2005.91894723239 
 1374          2074.40577148799 
 1375          2122.65338161508 
 1376          2213.93334960916 
 1377          2252.99427781108 
 1378          2281.3257251125 
 1379          2309.7071150529 
 1380          2319.80702683941 
 1381          2317.13886371761 
 1382          2311.79871326982 
 1383          2325.35318723582 
 1384          2369.14166790089 
 1385          2370.08592904311 
 1386          2315.56121894 
 1387          2299.81655470813 
 1388          2288.28076052421 
 1389          2311.44987737623 
 1390          2358.93345439356 
 1391          2435.42586058003 
 1392          2502.57866023296 
 1393          2584.99605666486 
 1394          2654.72468533292 
 1395          2746.24045368955 
 1396          2848.13993993479 
 1397          2920.39725293773 
 1398          2989.4341696408 
 1399          3047.431258189 
 1400          3074.69442163566 
 1401          3138.78963203868 
 1402          3240.1424452487 
 1403          3321.46676684945 
 1404          3423.37024392475 
 1405          3438.11667298972 
 1406          3449.85943866628 
 1407          3436.86787940501 
 1408          3470.95213171749 
 1409          3493.10840769848 
 1410          3538.36752534101 
 1411          3590.22415963745 
 1412          3611.58318906197 
 1413          3653.756515414 
 1414          3669.50765451274 
 1415          3619.20071777935 
 1416          3578.12929513448 
 1417          3592.00136919829 
 1418          3613.62485629217 
 1419          3664.61574336085 
 1420          3729.13218135806 
 1421          3770.03713080314 
 1422          3813.58019671271 
 1423          3817.49459936219 
 1424          3834.81135433289 
 1425          3828.15334006834 
 1426          3795.67048937466 
 1427          3799.62385788997 
 1428          3850.14587382613 
 1429          3983.60323531979 
 1430          4133.88347112726 
 1431          4194.87073183662 
 1432          4250.91879096557 
 1433          4275.41744101833 
 1434          4462.63433786674 
 1435          4674.42298277189 
 1436          4901.05105848135 
 1437          5063.43151351408 
 1438          5255.90766098414 
 1439          5516.49883621944 
 1440          5861.79175850491 
 1441          6280.93530718089 
 1442          6711.1271109047 
 1443          7255.75540764341 
 1444          7951.99534691539 
 1445          8750.65109640927 
 1446          9607.7789355295 
 1447          10314.4898689892 
 1448          10864.9093434703 
 1449          11351.7379718755 
 1450          11535.2642163716 
 1451          11569.3637397244 
 1452          11429.8051552304 
 1453          11141.1198518459 
 1454          10865.5123247171 
 1455          10370.168260805 
 1456          9895.66056726201 
 1457          9238.90197647637 
 1458          8744.73046755728 
 1459          8449.81356241636 
 1460          8106.63200633824 
 1461          7691.18208468694 
 1462          7324.66534076175 
 1463          7042.64842788601 
 1464          6748.50128210921 
 1465          6397.26211144116 
 1466          6104.38395820057 
 1467          5934.86476443546 
 1468          5682.39537949269 
 1469          5337.86462066262 
 1470          4966.11950009555 
 1471          4670.51786646528 
 1472          4389.84877030962 
 1473          4109.95581906782 
 1474          3829.80539435344 
 1475          3578.35053409622 
 1476          3370.1681341032 
 1477          3129.7389697881 
 1478          2901.47822932959 
 1479          2711.20553377721 
 1480          2625.02498009775 
 1481          2556.63104784567 
 1482          2455.06373274752 
 1483          2306.13481612704 
 1484          2171.63048765519 
 1485          2124.21273268917 
 1486          2046.01895900972 
 1487          1898.81985732587 
 1488          1776.83089929948 
 1489          1777.52231539441 
 1490          1790.90108458468 
 1491          1720.12151831883 
 1492          1573.54118470499 
 1493          1521.25532506544 
 1494          1531.01661649143 
 1495          1557.16187208002 
 1496          1566.93374356911 
 1497          1551.16462986639 
 1498          1598.32918711809 
 1499          1551.40238692561 
 1500          1480.46033403481 
 1501          1421.364846483 
 1502          1354.81466729865 
 1503          1324.8604117634 
 1504          1352.16533794229 
 1505          1301.54565886538 
 1506          1257.02775391502 
 1507          1300.94454304479 
 1508          1282.17674447159 
 1509          1217.58732131464 
 1510          1186.25219294188 
 1511          1186.79103467111 
 1512          1199.0032060018 
 1513          1153.25572432911 
 1514          1090.95260962751 
 1515          1050.14964984629 
 1516          1078.94564255939 
 1517          1065.9507635843 
 1518          1089.93164915513 
 1519          1103.61757064309 
 1520          1117.89545637465 
 1521          1121.32042173416 
 1522          1100.39398081755 
 1523          966.284808009012 
 1524          955.956801074983 
 1525          920.468136171552 
 1526          1024.65497430909 
 1527          1052.22285180146 
 1528          1055.31043131108 
 1529          962.454076000354 
 1530          864.212663072114 
 1531          866.977830880601 
 1532          884.38636899934 
 1533          885.47010856683 
 1534          859.140111135273 
 1535          867.364979598847 
 1536          868.028693944135 
 1537          845.680783829311 
 1538          842.567260617057 
 1539          858.501128780087 
 1540          870.95676819886 
 1541          864.730127355077 
 1542          865.087421390564 
 1543          848.906729712258 
 1544          836.281122146244 
 1545          841.645333447985 
 1546          851.019817124075 
 1547          878.831846583694 
 1548          851.122885928787 
 1549          791.039092792891 
 1550          700.759982282749 
 1551          667.785026575136 
 1552          641.196411244392 
 1553          711.535303005139 
 1554          716.906326242713 
 1555          754.202465464485 
 1556          692.626034782099 
 1557          721.648901772979 
 1558          727.512747237905 
 1559          750.825132100981 
 1560          719.342826762777 
 1561          721.362436013933 
 1562          729.032760826835 
 1563          724.181417026752 
 1564          740.613574264083 
 1565          734.68582281903 
 1566          716.358166304814 
 1567          716.579536226561 
 1568          723.396994185303 
 1569          680.826194397991 
 1570          642.867397159006 
 1571          686.515225620734 
 1572          719.584402313047 
 1573          755.888383294764 
 1574          760.956843353551 
 1575          742.595373492049 
 1576          731.104119707534 
 1577          733.601246253185 
 1578          699.480776006125 
 1579          684.38020021357 
 1580          664.682871481816 
 1581          627.46743705458 
 1582          624.337676555294 
 1583          634.452627982449 
 1584          636.424900203058 
 1585          668.521982948455 
 1586          686.977724272472 
 1587          723.295356857724 
 1588          688.266528209223 
 1589          643.506416339894 
 1590          564.3291895085 
 1591          509.651767523763 
 1592          575.578200017307 
 1593          675.708843239175 
 1594          729.913779791592 
 1595          697.292426438412 
 1596          674.988442657933 
 1597          682.176626656185 
 1598          680.41909385054 
 1599          657.398723582364 
 1600          644.409651334093 
 1601          666.124939882553 
 1602          705.218364772857 
 1603          680.088164677742 
 1604          615.776919325414 
 1605          605.820776949544 
 1606          589.720459343139 
 1607          590.735999303981 
 1608          593.695753686287 
 1609          614.945030683057 
 1610          649.290850533428 
 1611          655.038512338441 
 1612          667.300400771243 
 1613          670.884162235739 
 1614          683.605165168568 
 1615          713.708404433722 
 1616          688.522222397599 
 1617          663.770789429069 
 1618          675.82330132023 
 1619          707.748500995323 
 1620          712.495658605311 
 1621          643.30172357996 
 1622          620.484164115417 
 1623          652.605488494576 
 1624          699.347428268203 
 1625          689.613775399889 
 1626          677.944704440521 
 1627          690.338582957763 
 1628          726.941065029794 
 1629          734.6965414291 
 1630          729.782791435982 
 1631          755.018943798798 
 1632          715.756252249969 
 1633          673.925606243814 
 1634          666.24411975976 
 1635          637.807780782892 
 1636          633.548867406581 
 1637          635.929138110389 
 1638          596.978121846375 
 1639          648.739283547288 
 1640          699.379212703808 
 1641          682.061783456113 
 1642          663.641322790609 
 1643          688.917807232284 
 1644          726.503503846609 
 1645          713.213297983812 
 1646          684.349763838239 
 1647          660.016142867267 
 1648          626.935428016893 
 1649          627.265414121391 
 1650          716.138517015256 
 1651          766.440013827097 
 1652          795.152187190694 
 1653          745.023177826035 
 1654          725.559113877543 
 1655          731.133124137976 
 1656          807.603003846893 
 1657          818.746229658485 
 1658          742.306754902365 
 1659          706.68708885543 
 1660          730.296835865436 
 1661          751.815222719284 
 1662          741.471489237103 
 1663          672.282617469241 
 1664          692.068358443303 
 1665          677.679431038147 
 1666          757.852501514759 
 1667          781.896188551614 
 1668          757.381443861429 
 1669          716.408748954983 
 1670          722.812727844483 
 1671          731.761307447193 
 1672          734.070129904001 
 1673          747.136979600267 
 1674          800.164110954305 
 1675          808.60795991408 
 1676          834.586901825317 
 1677          734.934975381064 
 1678          719.380802259361 
 1679          732.996936239845 
 1680          810.200097475177 
 1681          762.039993098656 
 1682          746.881559757999 
 1683          753.574185052186 
 1684          745.091899844478 
 1685          761.419632312764 
 1686          744.445098509547 
 1687          739.774874342215 
 1688          720.711098170295 
 1689          664.223577437542 
 1690          618.397058671261 
 1691          621.949292325678 
 1692          649.615374508536 
 1693          669.566398635428 
 1694          722.160404936691 
 1695          713.421377188021 
 1696          663.882732442579 
 1697          644.104614136954 
 1698          663.320161592174 
 1699          694.534317802466 
 1700          675.116792254439 
 1701          661.37702466759 
 1702          627.902923868807 
 1703          614.371233767049 
 1704          633.561484168994 
 1705          656.347847007258 
 1706          709.382227524818 
 1707          675.278687712775 
 1708          692.533675991112 
 1709          671.212834115292 
 1710          695.185756368644 
 1711          701.428548476717 
 1712          723.56982473323 
 1713          730.330625319234 
 1714          709.912096113569 
 1715          677.79019456686 
 1716          697.084079762813 
 1717          647.618913403055 
 1718          564.341871482624 
 1719          523.826666269605 
 1720          592.516769304657 
 1721          645.734877273099 
 1722          632.191568435041 
 1723          608.483063825833 
 1724          582.389755193805 
 1725          532.678034983616 
 1726          512.105297285586 
 1727          539.4153667636 
 1728          538.461923944969 
 1729          506.598526562476 
 1730          553.533777768829 
 1731          627.530005423195 
 1732          601.409861293908 
 1733          510.280582091392 
 1734          514.217213490589 
 1735          599.756833670882 
 1736          677.177083089476 
 1737          726.142107085041 
 1738          770.729166796898 
 1739          748.122139584919 
 1740          695.03678827352 
 1741          517.126933367178 
 1742          562.173265907067 
 1743          617.999449516006 
 1744          655.228177711444 
 1745          598.043990862103 
 1746          552.611878773727 
 1747          572.296047609906 
 1748          620.813621950545 
 1749          615.493337143786 
 1750          539.432825340016 
 1751          516.684976037251 
 1752          573.362656742501 
 1753          598.69034847681 
 1754          558.129765155063 
 1755          526.042492569399 
 1756          566.784001193255 
 1757          592.080795817332 
 1758          606.001702860498 
 1759          553.531066077935 
 1760          512.661749572948 
 1761          539.819274958793 
 1762          566.65633113535 
 1763          581.145861329582 
 1764          528.713909757421 
 1765          489.555389032362 
 1766          464.640781577751 
 1767          526.551066357588 
 1768          563.042395310651 
 1769          598.955448173505 
 1770          656.789899934458 
 1771          650.123517365561 
 1772          585.301075558156 
 1773          521.941534945346 
 1774          516.696621277536 
 1775          531.684543009283 
 1776          569.900112645227 
 1777          549.98357387381 
 1778          567.489991850058 
 1779          598.485183937781 
 1780          622.750841625307 
 1781          610.317971913768 
 1782          588.761317328498 
 1783          542.615289484057 
 1784          462.69785912586 
 1785          468.792907082898 
 1786          567.290549369712 
 1787          653.952445447065 
 1788          590.031952081162 
 1789          454.045261393494 
 1790          359.664462731122 
 1791          346.72112319177 
 1792          474.662327619065 
 1793          525.198212097049 
 1794          567.227434829333 
 1795          460.613887861832 
 1796          451.93019217249 
 1797          434.643148417766 
 1798          477.381023766707 
 1799          448.842205329369 
 1800          464.592927795919 
 1801          471.68043624692 
 1802          510.305646975191 
 1803          581.45419915938 
 1804          553.584934589651 
 1805          535.892136912045 
 1806          519.196989106265 
 1807          466.702662034737 
 1808          474.891359437726 
 1809          478.530762305064 
 1810          469.952259845291 
 1811          473.262467341574 
 1812          453.059360071928 
 1813          465.612356034134 
 1814          468.625616915711 
 1815          403.06386189572 
 1816          432.407899825797 
 1817          479.188057366226 
 1818          599.758530844549 
 1819          577.434380950623 
 1820          542.55776274331 
 1821          523.925854975779 
 1822          504.501555434932 
 1823          487.474380776622 
 1824          472.045829977149 
 1825          457.436998605806 
 1826          519.702253690827 
 1827          555.119036711784 
 1828          571.270156001323 
 1829          562.719711354821 
 1830          526.545861584733 
 1831          525.341135516609 
 1832          532.366078846713 
 1833          557.677211095432 
 1834          511.741394496291 
 1835          503.0612645716 
 1836          505.989452560863 
 1837          483.281798701606 
 1838          514.051264808426 
 1839          530.749133038184 
 1840          507.037408691601 
 1841          499.230103103991 
 1842          509.749467384539 
 1843          527.695427090565 
 1844          531.366947842143 
 1845          481.333567359339 
 1846          508.481030020028 
 1847          538.356748338524 
 1848          538.800929693547 
 1849          571.205159948027 
 1850          523.610928323522 
 1851          483.227729578862 
 1852          479.604805742056 
 1853          498.256732522404 
 1854          510.654688735598 
 1855          537.413949094587 
 1856          517.52164755078 
 1857          485.599758562553 
 1858          419.94993510314 
 1859          375.333498891148 
 1860          452.751592487836 
 1861          487.366356029368 
 1862          508.252239211696 
 1863          486.788960417057 
 1864          509.694438660119 
 1865          538.63659654792 
 1866          526.194392345507 
 1867          504.032727912209 
 1868          500.421003782815 
 1869          457.683676745077 
 1870          430.784829899099 
 1871          456.669382779415 
 1872          454.81169806076 
 1873          477.822076586262 
 1874          432.57490163428 
 1875          374.066082379736 
 1876          383.650573784339 
 1877          426.618451046721 
 1878          447.397084472997 
 1879          434.811130069624 
 1880          473.620312020443 
 1881          521.461914643826 
 1882          462.842449909433 
 1883          428.087126274866 
 1884          424.611186982676 
 1885          391.780056071593 
 1886          423.660714917097 
 1887          442.943890899686 
 1888          443.343951554191 
 1889          423.976461602294 
 1890          390.293806746065 
 1891          387.726203030359 
 1892          395.733032253696 
 1893          445.509961978965 
 1894          440.609595063371 
 1895          428.635370507914 
 1896          484.539089879569 
 1897          576.05947040893 
 1898          555.506888222335 
 1899          443.747705480159 
 1900          381.893609027321 
 1901          423.704548183667 
 1902          462.391834974518 
 1903          480.313033572047 
 1904          482.068837159918 
 1905          459.496299902377 
 1906          436.253703935812 
 1907          440.522095858908 
 1908          515.761908479555 
 1909          519.854433818029 
 1910          519.109780027313 
 1911          493.17176807083 
 1912          514.339949702194 
 1913          539.614902874537 
 1914          561.169708734389 
 1915          511.516947222482 
 1916          463.398833450977 
 1917          384.267049771249 
 1918          293.2559459691 
 1919          373.748256550062 
 1920          494.347083026584 
 1921          516.623140652468 
 1922          457.212899337456 
 1923          413.653739342783 
 1924          435.724341073907 
 1925          486.705587322022 
 1926          529.618044719756 
 1927          451.322150448636 
 1928          363.772889686538 
 1929          332.737057551332 
 1930          381.448231723729 
 1931          414.707465624056 
 1932          446.858681954272 
 1933          464.063675225874 
 1934          485.14510986769 
 1935          404.680674148323 
 1936          397.578302035348 
 1937          466.766946319546 
 1938          513.024656344801 
 1939          507.445159797178 
 1940          482.163665108735 
 1941          494.091576579038 
 1942          425.425261940987 
 1943          413.07889984084 
 1944          425.500884791583 
 1945          478.294690227073 
 1946          500.571868427106 
 1947          449.674202041797 
 1948          399.978246474579 
 1949          437.979252681266 
 1950          494.933517276858 
 1951          475.825058028869 
 1952          428.851685290763 
 1953          471.881379505487 
 1954          477.327874625021 
 1955          459.982967793791 
 1956          498.391797596485 
 1957          523.776951475812 
 1958          454.823684222036 
 1959          403.875343973006 
 1960          425.947416939174 
 1961          412.211496537111 
 1962          355.543573843509 
 1963          330.468969443855 
 1964          397.916276170507 
 1965          435.203304404496 
 1966          406.575521940569 
 1967          363.509519883785 
 1968          321.030097602024 
 1969          342.170377579266 
 1970          359.116999374165 
 1971          411.062306005158 
 1972          467.282968505318 
 1973          398.621267291944 
 1974          350.686895957913 
 1975          353.687313926201 
 1976          391.364113210874 
 1977          350.385654342066 
 1978          341.68767271815 
 1979          337.792013477979 
 1980          358.944314672354 
 1981          385.851722586247 
 1982          340.652386600315 
 1983          347.410241684026 
 1984          380.003756524878 
 1985          419.086669390634 
 1986          398.128206196497 
 1987          332.202682482304 
 1988          303.686467257227 
 1989          353.432424835205 
 1990          384.832784680264 
 1991          350.583701884761 
 1992          373.904840975369 
 1993          352.240289492439 
 1994          333.3945514558 
 1995          351.186858171727 
 1996          397.539108543227 
 1997          429.714391516414 
 1998          343.454164746684 
 1999          301.856072217504 
 2000          276.067579372755 
 2001          409.80862360419 
 2002          421.433878669875 
 2003          401.728969476954 
 2004          385.317261821249 
 2005          386.353017455299 
 2006          323.752621842517 
 2007          330.248086084107 
 2008          345.550293452169 
 2009          373.704893340791 
 2010          367.595564444994 
 2011          363.021623178368 
 2012          381.846260063007 
 2013          402.252808834824 
 2014          390.401606898272 
 2015          369.412448715099 
 2016          335.188675272998 
 2017          325.542351921937 
 2018          375.26110108998 
 2019          403.152708519682 
 2020          412.316709505227 
 2021          380.522814140666 
 2022          346.334225702425 
 2023          312.259821706083 
 2024          310.614261053825 
 2025          293.393373159508 
 2026          266.816900730558 
 2027          223.052194849361 
 2028          256.06424352485 
 2029          298.8000731817 
 2030          296.014266028022 
 2031          415.989173056834 
 2032          409.553642779292 
 2033          411.416138952486 
 2034          341.173860588714 
 2035          348.809242732044 
 2036          372.428125942035 
 2037          417.546869440573 
 2038          423.17589615581 
 2039          305.638718009022 
 2040          330.478053136729 
 2041          364.27503950892 
 2042          342.110070141222 
 2043          332.851886369577 
 2044          333.490333791783 
 2045          410.718870352359 
 2046          411.493345875017 
 2047          360.673807998745 
 2048          304.418269300192 
 2049          257.604053144779 
 2050          290.381036357577 
 2051          369.796348694617 
 2052          363.880777631514 
 2053          308.901400598358 
 2054          283.525777501454 
 2055          391.130839970292 
 2056          404.140027041647 
 2057          348.064510756107 
 2058          282.150118309342 
 2059          279.251336468835 
 2060          280.960705094961 
 2061          286.639767497736 
 2062          292.139328714389 
 2063          308.972243377843 
 2064          366.843950194453 
 2065          346.358197562028 
 2066          318.290520615966 
 2067          287.202088594976 
 2068          344.121174128465 
 2069          353.813257376937 
 2070          325.403360039888 
 2071          333.725303436006 
 2072          311.255624543973 
 2073          414.191497665362 
 2074          415.261344975466 
 2075          372.978874369493 
 2076          335.904234998974 
 2077          336.149838212513 
 2078          385.036764440092 
 2079          414.695484330016 
 2080          413.781796248046 
 2081          351.771503093264 
 2082          327.376118286652 
 2083          408.767019923468 
 2084          424.552853989964 
 2085          411.094486606591 
 2086          370.068713649713 
 2087          362.493857768051 
 2088          380.386717480017 
 2089          407.416738947957 
 2090          315.546564380446 
 2091          269.749887793775 
 2092          381.727559964597 
 2093          395.514329555497 
 2094          378.277213510717 
 2095          395.651702762658 
 2096          460.468805895824 
 2097          384.458812110274 
 2098          310.676652788089 
 2099          308.488448661645 
 2100          344.577788078852 
 2101          356.108414643533 
 2102          310.814818081146 
 2103          234.010947166048 
 2104          238.977113279296 
 2105          318.098475601272 
 2106          371.089275959183 
 2107          347.933467619153 
 2108          354.90389530945 
 2109          352.748714909635 
 2110          381.38582754025 
 2111          356.364104828188 
 2112          337.634138504123 
 2113          286.078621986625 
 2114          309.422780980112 
 2115          321.830089669032 
 2116          331.302628552262 
 2117          304.605561549788 
 2118          298.244392898351 
 2119          307.60907490351 
 2120          273.387358927233 
 2121          314.293484199728 
 2122          248.103504817416 
 2123          159.502041805002 
 2124          176.85937728664 
 2125          265.458177717047 
 2126          283.183512650534 
 2127          300.617649465553 
 2128          345.189900673247 
 2129          358.755025462141 
 2130          379.085729824964 
 2131          350.710736150012 
 2132          264.677111064781 
 2133          246.737445289492 
 2134          228.11345531076 
 2135          230.670853215717 
 2136          241.558684554019 
 2137          254.633167272502 
 2138          291.696665897263 
 2139          289.819006501158 
 2140          304.410100067639 
 2141          284.978470555921 
 2142          319.124163904235 
 2143          321.515241195786 
 2144          352.745908777894 
 2145          333.991588233612 
 2146          310.63531420041 
 2147          247.681105184978 
 2148          191.847206077722 
 2149          211.310652471326 
 2150          244.391191531293 
 2151          218.239315328572 
 2152          227.927704456883 
 2153          309.479759276987 
 2154          376.939586572195 
 2155          347.640196417199 
 2156          306.359750940983 
 2157          327.685197753291 
 2158          353.645939096824 
 2159          326.30810422293 
 2160          307.604317813453 
 2161          291.933995008604 
 2162          267.284731775939 
 2163          272.438319456464 
 2164          320.133443436816 
 2165          300.110895989483 
 2166          244.85839584428 
 2167          255.136797971202 
 2168          271.589788803661 
 2169          325.039622160433 
 2170          322.990029204802 
 2171          318.1022194315 
 2172          227.190977373841 
 2173          189.066712846447 
 2174          192.047109654956 
 2175          208.438182716996 
 2176          293.144629939977 
 2177          280.892137921269 
 2178          307.149806087845 
 2179          347.587866370742 
 2180          401.94922277222 
 2181          333.577529934303 
 2182          279.252662983852 
 2183          230.575706224772 
 2184          190.752373998505 
 2185          166.23088065207 
 2186          203.304750831518 
 2187          242.150003394378 
 2188          328.488902219593 
 2189          336.299676149985 
 2190          256.572059933288 
 2191          238.43408130509 
 2192          212.108432907337 
 2193          188.915213686374 
 2194          232.01586625685 
 2195          293.590266390529 
 2196          280.846525258351 
 2197          188.820765284798 
 2198          170.368984387523 
 2199          181.206455942071 
 2200          233.779320081717 
 2201          259.857638523568 
 2202          329.737929611784 
 2203          270.438870763359 
 2204          224.887036227679 
 2205          139.43163187482 
 2206          201.361551166885 
 2207          243.544877494675 
 2208          282.019901655918 
 2209          297.2876129989 
 2210          320.94786599412 
 2211          258.234335132909 
 2212          254.536282304689 
 2213          228.090410380358 
 2214          217.206452569207 
 2215          177.902209888114 
 2216          197.187679756722 
 2217          202.060340156934 
 2218          234.764345975196 
 2219          235.033627543379 
 2220          215.000228322857 
 2221          226.030015826518 
 2222          257.786258195386 
 2223          362.55546933086 
 2224          374.495211584641 
 2225          378.072810592922 
 2226          299.690165239957 
 2227          221.673922728803 
 2228          291.905833394983 
 2229          335.02657461268 
 2230          310.880725454812 
 2231          321.3012680681 
 2232          313.241068299018 
 2233          357.078066667342 
 2234          363.628695956401 
 2235          332.41641331564 
 2236          379.937107041101 
 2237          387.981112166822 
 2238          380.283319267421 
 2239          297.917615662313 
 2240          232.409979454388 
 2241          224.779325502678 
 2242          246.027930036203 
 2243          287.926463059088 
 2244          273.288219189026 
 2245          271.577687100606 
 2246          224.810598980003 
 2247          296.037095464156 
 2248          349.849333904255 
 2249          407.179521174871 
 2250          364.944173517392 
 2251          307.045283115812 
 2252          255.414208806078 
 2253          272.206315393201 
 2254          277.503732676016 
 2255          295.177700131732 
 2256          294.976811723622 
 2257          315.680733941282 
 2258          281.635413320099 
 2259          281.257391865314 
 2260          325.621426391217 
 2261          327.129919489312 
 2262          257.784328123144 
 2263          288.971567339936 
 2264          291.705473290321 
 2265          310.682453937467 
 2266          311.44118820344 
 2267          267.104128691486 
 2268          300.921233692941 
 2269          372.187318083254 
 2270          341.629561706869 
 2271          251.276996817769 
 2272          308.984145879772 
 2273          356.625235921242 
 2274          294.158615625666 
 2275          235.963918396173 
 2276          317.468919660883 
 2277          394.024608011329 
 2278          378.916255955824 
 2279          302.415245997587 
 2280          299.830211333808 
 2281          307.648559373277 
 2282          270.299794759513 
 2283          289.224760363833 
 2284          315.359541298443 
 2285          315.271183679262 
 2286          314.259654639498 
 2287          251.609907723353 
 2288          206.32391520068 
 2289          278.466040265875 
 2290          307.184554372969 
 2291          289.239204600089 
 2292          203.173088072151 
 2293          248.964142001153 
 2294          239.732239806831 
 2295          266.442762390002 
 2296          288.814265134297 
 2297          306.571838954686 
 2298          274.997406333292 
 2299          229.308649693317 
 2300          198.435605934041 
 2301          252.144157973722 
 2302          302.60646566418 
 2303          317.039367157941 
 2304          261.975577341557 
 2305          175.184836167527 
 2306          184.89211819668 
 2307          181.422265369584 
 2308          201.992388341613 
 2309          212.603919279332 
 2310          245.81235143164 
 2311          186.234224566448 
 2312          138.101121002269 
 2313          168.11324297219 
 2314          236.574880703703 
 2315          330.050561018753 
 2316          323.619073301167 
 2317          272.695620604776 
 2318          267.476472371953 
 2319          252.69104676561 
 2320          273.277176360161 
 2321          276.146336757657 
 2322          261.291501606533 
 2323          241.928404114163 
 2324          246.720298952936 
 2325          257.273677631207 
 2326          283.185576043503 
 2327          281.402939682165 
 2328          262.143490071464 
 2329          298.855386305626 
 2330          291.145422426081 
 2331          298.799955681631 
 2332          288.435020771666 
 2333          200.778088776114 
 2334          152.028154026836 
 2335          212.746258031057 
 2336          203.793931983723 
 2337          229.655324182778 
 2338          220.6893383154 
 2339          201.89936210339 
##END=
