##TITLE=ethanol 1.jdx
##JCAMP-DX=5.00
##DATE=7/1/2010 10:57:08 AM
##DATATYPE=Raman Spectrum
##DATA CLASS=XYDATA
##ORIGIN=ENWAVE
##OWNER=ENWAVE
##NPOINTS=2090
##FIRSTX= 1
##LASTX= 2339
##MAXX= 2339
##MINX= 1
##XFACTOR=1.0000000000
##YFACTOR=1.0000000000
##FIRSTY= 242.700936022161
##DELTAX=1.000000000000
##XUNITS=1/CM
##YUNITS=ARBITRARY UNITS
##XYDATA=(X++(Y..Y))
 1             242.700936022161 
 251           242.700936022161 
 252           661.075872750131 
 253           1398.97961218591 
 254           2024.99983979665 
 255           2573.441149666 
 256           2921.99017098414 
 257           2894.33903900404 
 258           2827.50561864913 
 259           2860.00776365775 
 260           2911.74367161833 
 261           2921.0122652294 
 262           2888.09727072011 
 263           2854.27258697281 
 264           2859.27745207495 
 265           2860.5089555467 
 266           2824.30286975604 
 267           2811.76034392416 
 268           2792.82240754437 
 269           2766.80697793908 
 270           2832.40636941501 
 271           2890.39136497702 
 272           2877.96147490226 
 273           2884.6991634948 
 274           2900.12029265959 
 275           2908.61584624751 
 276           2917.35456408543 
 277           2860.3819280473 
 278           2736.355354438 
 279           2623.1056296705 
 280           2566.17881397293 
 281           2566.02324361524 
 282           2588.73891445745 
 283           2594.50971932321 
 284           2577.96503798707 
 285           2562.61834173478 
 286           2574.51828468937 
 287           2578.79830367954 
 288           2546.46427605607 
 289           2526.63686193304 
 290           2509.23801796206 
 291           2472.68312470475 
 292           2432.0977871826 
 293           2401.4697611578 
 294           2395.4247018851 
 295           2423.32932427044 
 296           2451.88991685588 
 297           2468.74116021569 
 298           2495.01199527284 
 299           2531.42377906843 
 300           2553.74992391329 
 301           2523.36455766551 
 302           2419.54396016901 
 303           2335.67208357468 
 304           2356.32395405403 
 305           2359.23785815224 
 306           2366.0535533737 
 307           2409.85486859263 
 308           2365.87307367141 
 309           2275.98041335386 
 310           2211.98896744855 
 311           2165.50252018208 
 312           2171.37885288726 
 313           2232.06176325466 
 314           2295.04035487183 
 315           2340.63903735041 
 316           2349.34691616262 
 317           2309.25141185053 
 318           2265.70300051 
 319           2253.67277312156 
 320           2273.03366351659 
 321           2281.49162228742 
 322           2267.81089588665 
 323           2241.15286788646 
 324           2206.99940311085 
 325           2175.77513442014 
 326           2158.23004776211 
 327           2158.33867349417 
 328           2161.23605877719 
 329           2163.99181957081 
 330           2177.52475950612 
 331           2184.37149162178 
 332           2203.04722099175 
 333           2258.8315087285 
 334           2285.49183858492 
 335           2278.00395986315 
 336           2264.32543704097 
 337           2229.44394746508 
 338           2190.87512897546 
 339           2189.40265267957 
 340           2257.57496622533 
 341           2344.65599933228 
 342           2394.34625371267 
 343           2388.91532623758 
 344           2338.11156368386 
 345           2305.42110837018 
 346           2347.56903341514 
 347           2369.45262174205 
 348           2364.76683589328 
 349           2354.33453233958 
 350           2252.69263277896 
 351           2166.74454966412 
 352           2176.76941311156 
 353           2162.82672605903 
 354           2138.57931673852 
 355           2158.04934471806 
 356           2237.91081581685 
 357           2328.42822375402 
 358           2403.97359350554 
 359           2468.0364566611 
 360           2503.57749426993 
 361           2516.87459717914 
 362           2525.44396671293 
 363           2533.18912468789 
 364           2543.99024785318 
 365           2567.18435419794 
 366           2605.56025223203 
 367           2596.20573052477 
 368           2558.92996924733 
 369           2575.88409606811 
 370           2568.55937125357 
 371           2591.21950728042 
 372           2723.21442699506 
 373           2811.53288359678 
 374           2880.23124864649 
 375           2959.35447273263 
 376           2935.51104242827 
 377           2933.65373673145 
 378           3016.93310546874 
 379           3097.06521053093 
 380           3219.31639218421 
 381           3349.36998747319 
 382           3409.8287394144 
 383           3460.65277811067 
 384           3506.46087395533 
 385           3550.49161290676 
 386           3663.15819091864 
 387           3827.28500093615 
 388           3968.06465588447 
 389           4012.83829064421 
 390           3999.79484279068 
 391           3991.41371792364 
 392           4007.15116573453 
 393           3971.21953750947 
 394           3899.93259641514 
 395           3841.06011497869 
 396           3788.33883890735 
 397           3771.0968566491 
 398           3791.18906860995 
 399           3809.31629036965 
 400           3838.30818613492 
 401           3885.84639073502 
 402           3939.22008702275 
 403           3977.09854577984 
 404           3999.07141646882 
 405           4028.36329410642 
 406           4091.7833453075 
 407           4130.37877231348 
 408           4169.89012029297 
 409           4312.79243344033 
 410           4462.92538339895 
 411           4621.53386322221 
 412           4847.02395688648 
 413           5077.82999405651 
 414           5288.6050972758 
 415           5529.72304451779 
 416           5887.16460183947 
 417           6262.9968389989 
 418           6641.04260428227 
 419           7100.69855330855 
 420           7581.17638035926 
 421           8017.24802137957 
 422           8410.31264672203 
 423           8833.51740229859 
 424           9182.98651681541 
 425           9415.02073850004 
 426           9627.09109596502 
 427           9789.33755449869 
 428           9852.04326708531 
 429           9788.15898783381 
 430           9598.54186287827 
 431           9310.86322820977 
 432           8992.81696018944 
 433           8731.02011710139 
 434           8490.59624134792 
 435           8244.50430059795 
 436           7992.83154398205 
 437           7685.42231792621 
 438           7362.19965599405 
 439           7074.72083697005 
 440           6784.5589511564 
 441           6473.81774546983 
 442           6186.60428138319 
 443           5988.99049700841 
 444           5822.3242985089 
 445           5652.59830374455 
 446           5479.24980606985 
 447           5295.09482583379 
 448           5125.15592388118 
 449           4983.88420866432 
 450           4845.71748382751 
 451           4659.92145109182 
 452           4427.0298248326 
 453           4199.52083712266 
 454           4032.52583941551 
 455           3896.42291707993 
 456           3772.91905727045 
 457           3705.73718783831 
 458           3671.64415813071 
 459           3619.7873691215 
 460           3524.29282249083 
 461           3432.74343606039 
 462           3340.61665886674 
 463           3221.73228006375 
 464           3088.94876753851 
 465           3044.56059757211 
 466           3057.49447650491 
 467           3034.48250427908 
 468           3092.41234019865 
 469           3155.66196667164 
 470           3146.43075791531 
 471           3160.09766500619 
 472           3176.81371232559 
 473           3174.51957596908 
 474           3167.78312798285 
 475           3166.62291308542 
 476           3153.16641678512 
 477           3150.81122085967 
 478           3235.19229514913 
 479           3307.62616792439 
 480           3331.51523655003 
 481           3353.69969740391 
 482           3356.65157212434 
 483           3391.93861782 
 484           3476.40860129231 
 485           3529.73988457337 
 486           3577.2825350144 
 487           3655.30763772454 
 488           3731.72754035551 
 489           3681.72264887678 
 490           3605.13404468739 
 491           3550.01591241943 
 492           3378.23379096768 
 493           3221.10153551312 
 494           3154.38888084383 
 495           3133.18805793521 
 496           3097.56171644242 
 497           3032.99826802907 
 498           2948.12211881451 
 499           2858.88204111331 
 500           2801.9846823089 
 501           2785.73771868114 
 502           2802.20163577782 
 503           2853.13986683691 
 504           2889.24781756064 
 505           2877.23529730415 
 506           2834.69297040148 
 507           2802.98502521926 
 508           2800.77896696749 
 509           2820.79398726514 
 510           2843.25237975369 
 511           2861.33780993973 
 512           2886.10222702712 
 513           2927.39542547601 
 514           2964.41209306599 
 515           3044.19292735132 
 516           3182.7756520302 
 517           3319.92285024703 
 518           3512.56970061747 
 519           3709.45496178546 
 520           3815.83824176935 
 521           3891.85875637128 
 522           3938.77614550067 
 523           4023.04736340521 
 524           4260.36029952999 
 525           4524.05657204655 
 526           4725.24791931325 
 527           4842.18626741981 
 528           4873.17298635343 
 529           4860.37592919867 
 530           4836.31004749917 
 531           4797.57540720509 
 532           4713.51053528959 
 533           4610.14803659233 
 534           4497.26670536297 
 535           4327.82423148584 
 536           4089.10397260445 
 537           3847.85427830285 
 538           3654.4439617284 
 539           3444.22870996306 
 540           3241.8338888161 
 541           3086.64837018053 
 542           2976.15956112166 
 543           2862.90663966603 
 544           2735.35032541241 
 545           2617.64701105948 
 546           2538.2218933973 
 547           2472.30849883675 
 548           2394.21464975627 
 549           2303.78773879666 
 550           2229.25330639511 
 551           2183.22130674488 
 552           2158.16290400225 
 553           2130.42501598084 
 554           2075.37369493019 
 555           2028.7793653747 
 556           2001.76858136228 
 557           1947.02161619393 
 558           1888.71152899582 
 559           1844.10431138916 
 560           1821.06705228753 
 561           1831.84874205228 
 562           1825.57412532523 
 563           1779.77219558722 
 564           1719.85299973002 
 565           1673.31205170405 
 566           1671.38408147898 
 567           1710.47343008675 
 568           1745.99943916542 
 569           1751.21581406029 
 570           1755.99382106893 
 571           1757.31396072832 
 572           1685.05000981561 
 573           1627.67902361151 
 574           1596.09468723414 
 575           1559.12882284763 
 576           1589.27537341134 
 577           1662.00152949157 
 578           1693.8228011113 
 579           1636.76731103784 
 580           1571.43333030005 
 581           1499.77975332889 
 582           1448.92131636637 
 583           1493.13512623059 
 584           1547.67433921351 
 585           1598.16727095876 
 586           1644.94357212453 
 587           1637.23649587687 
 588           1654.54427328573 
 589           1655.92611603985 
 590           1569.55472942622 
 591           1494.74739354613 
 592           1468.90810965102 
 593           1471.53108184249 
 594           1477.55628780508 
 595           1500.31537414543 
 596           1453.11402859199 
 597           1385.74266818089 
 598           1452.46320359631 
 599           1506.62120699758 
 600           1530.14747861073 
 601           1531.76644291571 
 602           1459.3634047337 
 603           1409.21272098037 
 604           1414.32394384081 
 605           1434.74297471727 
 606           1429.73379574155 
 607           1416.10193675135 
 608           1436.43686519041 
 609           1491.91167663263 
 610           1512.74119782617 
 611           1538.06846008926 
 612           1550.73743859199 
 613           1499.61969998241 
 614           1440.00559859677 
 615           1377.67440513423 
 616           1323.97707551058 
 617           1300.10989998891 
 618           1274.85945653522 
 619           1252.98472800163 
 620           1263.96607658659 
 621           1315.26997326451 
 622           1345.78873423916 
 623           1380.03752339582 
 624           1419.67906648751 
 625           1407.55116788054 
 626           1404.25124160536 
 627           1363.00370440653 
 628           1282.87883255709 
 629           1288.01316164152 
 630           1299.95336542697 
 631           1323.93887061444 
 632           1383.35608618087 
 633           1409.11960398059 
 634           1417.1398487205 
 635           1416.44843076867 
 636           1409.42774953058 
 637           1411.5034721542 
 638           1373.12771374825 
 639           1369.39853650786 
 640           1441.50669047393 
 641           1415.7810024469 
 642           1400.47398921174 
 643           1367.96020645221 
 644           1239.42171628929 
 645           1189.71353131349 
 646           1209.69695780725 
 647           1249.0784226542 
 648           1285.45070977314 
 649           1297.94765835979 
 650           1299.78436313946 
 651           1303.79701873181 
 652           1315.04875067174 
 653           1346.59245962669 
 654           1402.43520933222 
 655           1418.69163412456 
 656           1345.59474555525 
 657           1288.26807802943 
 658           1259.00701449564 
 659           1244.81024095588 
 660           1257.05994165401 
 661           1304.49467546055 
 662           1314.55136461766 
 663           1288.87628175836 
 664           1299.78742923144 
 665           1340.24543157479 
 666           1403.35225428107 
 667           1444.34575967459 
 668           1416.48679588074 
 669           1361.20148697214 
 670           1284.95353968006 
 671           1234.43760551975 
 672           1247.55079390551 
 673           1232.78333147135 
 674           1252.09588997977 
 675           1321.88085066104 
 676           1362.76248956318 
 677           1340.84845084858 
 678           1316.49875221365 
 679           1298.18422108409 
 680           1276.61119269345 
 681           1342.62644423669 
 682           1399.47665981387 
 683           1414.19784922159 
 684           1435.38014589753 
 685           1433.43548624474 
 686           1419.30182104629 
 687           1399.31583904136 
 688           1382.70461086922 
 689           1405.41525040942 
 690           1422.41511380661 
 691           1388.41494638248 
 692           1322.08211027297 
 693           1293.31786262066 
 694           1258.56334157823 
 695           1263.45026829645 
 696           1348.61703079219 
 697           1411.07604847353 
 698           1436.2129453603 
 699           1434.25880365746 
 700           1424.4840764425 
 701           1428.9586105315 
 702           1416.3111930909 
 703           1385.40729694748 
 704           1366.05617289383 
 705           1374.56600723784 
 706           1367.63922788955 
 707           1350.80330116001 
 708           1336.57602312242 
 709           1331.57135228224 
 710           1407.13383289426 
 711           1489.25287922863 
 712           1528.27711197782 
 713           1539.78015077139 
 714           1447.23800190644 
 715           1383.89907370184 
 716           1383.76121696759 
 717           1352.51013082084 
 718           1325.78708427729 
 719           1275.89094777064 
 720           1234.90209913471 
 721           1257.32075560389 
 722           1297.63145638516 
 723           1330.41368247331 
 724           1328.94622166511 
 725           1330.8005955708 
 726           1427.03374619674 
 727           1467.77832083784 
 728           1471.71862718979 
 729           1493.14920927573 
 730           1466.1978319306 
 731           1427.06840544162 
 732           1432.33123725033 
 733           1471.38357584779 
 734           1494.09069251547 
 735           1535.78426944035 
 736           1558.82058089626 
 737           1549.86275828872 
 738           1549.45717857447 
 739           1572.31972701357 
 740           1569.92347267596 
 741           1564.63060106669 
 742           1592.98956701976 
 743           1602.80704802718 
 744           1598.06874492048 
 745           1588.1943769871 
 746           1603.00383124081 
 747           1675.80474825168 
 748           1729.94237444523 
 749           1766.64691258352 
 750           1822.08535026164 
 751           1886.87807131161 
 752           1903.38930865331 
 753           1920.67093305424 
 754           1958.17753162868 
 755           1981.36842228051 
 756           1997.12220721507 
 757           2071.99738362801 
 758           2193.89017854522 
 759           2322.13917784217 
 760           2455.40808984902 
 761           2538.2409269199 
 762           2651.50122270442 
 763           2832.76292865966 
 764           3003.98144928299 
 765           3181.72568224461 
 766           3455.49826841496 
 767           3780.3911125052 
 768           4100.49298647095 
 769           4548.00655407175 
 770           4961.58051881945 
 771           5445.38501532124 
 772           6179.34548795795 
 773           7091.24493635903 
 774           8108.74350425152 
 775           9165.17614768686 
 776           10323.5057798443 
 777           11664.5565197908 
 778           13010.6511438691 
 779           14371.9992137646 
 780           15646.584841105 
 781           16773.8523011004 
 782           17935.0126011428 
 783           18915.325894523 
 784           19650.4442763727 
 785           20169.9204338426 
 786           20352.2686492607 
 787           19936.4587325915 
 788           19108.3824317636 
 789           18121.5280599706 
 790           17012.8652928409 
 791           15698.8051778279 
 792           14374.0133755243 
 793           13067.6925776663 
 794           11754.8441299473 
 795           10524.5830178669 
 796           9373.91350220043 
 797           8322.18863947604 
 798           7419.89456258347 
 799           6624.67858130001 
 800           5787.47775965585 
 801           5211.09197797647 
 802           4897.34369903802 
 803           4625.81638806766 
 804           4330.10579060392 
 805           4080.96433658186 
 806           3811.55911323491 
 807           3560.67040745872 
 808           3414.91537593421 
 809           3257.89860632439 
 810           3158.14591975158 
 811           3088.99068426139 
 812           2991.00903887844 
 813           2898.29336063252 
 814           2840.00491802092 
 815           2813.36719783405 
 816           2801.80006126388 
 817           2801.10066596599 
 818           2813.59543219138 
 819           2775.35296970996 
 820           2707.52973735124 
 821           2652.50984563205 
 822           2594.98209452962 
 823           2521.3740855534 
 824           2538.76180042688 
 825           2593.48348213424 
 826           2588.60031077735 
 827           2606.66233672068 
 828           2646.97373576807 
 829           2659.02658464174 
 830           2635.35971852854 
 831           2620.84644162326 
 832           2626.61724672643 
 833           2592.57029082701 
 834           2612.34554631066 
 835           2745.84539731772 
 836           2868.71395863964 
 837           2941.19261044182 
 838           3028.49767406591 
 839           3109.34780032484 
 840           3134.9539027684 
 841           3168.48111117698 
 842           3184.23258510759 
 843           3205.87715332723 
 844           3252.87553220448 
 845           3317.23345683352 
 846           3421.23638928826 
 847           3523.46780866341 
 848           3643.19354334059 
 849           3798.12271710407 
 850           3947.03670774421 
 851           4091.37716432772 
 852           4222.97709751265 
 853           4346.29776619563 
 854           4518.82186907492 
 855           4800.98160953378 
 856           5088.88592848834 
 857           5468.82975976477 
 858           5899.35764798682 
 859           6317.49780816026 
 860           6941.50432117548 
 861           7554.70669157782 
 862           8292.50734055598 
 863           9141.89751533237 
 864           9955.96067843582 
 865           11193.3927380864 
 866           12555.6782974528 
 867           14135.956560487 
 868           16213.810606008 
 869           18783.1802085195 
 870           21986.2227324925 
 871           26172.690831491 
 872           31355.2786315608 
 873           36737.7511661307 
 874           41366.2290733132 
 875           45784.9380571607 
 876           49147.4511698189 
 877           50922.2493626147 
 878           52084.7034293379 
 879           53458.0480128138 
 880           52342.6367536993 
 881           49460.7402978665 
 882           45875.9564746325 
 883           41552.7588088297 
 884           36976.368383064 
 885           32214.5011225857 
 886           27883.7776844825 
 887           24180.0400877704 
 888           20850.8940172996 
 889           17982.6396184574 
 890           14992.9098469779 
 891           12643.4985837286 
 892           11212.7306498853 
 893           10004.2040695726 
 894           9039.16407717317 
 895           8278.14572871039 
 896           7599.79017843027 
 897           6962.45039510175 
 898           6426.82439887454 
 899           6027.11679478067 
 900           5731.50880437706 
 901           5442.33182961821 
 902           5137.44060079276 
 903           4845.97076915524 
 904           4513.47024421612 
 905           4256.27142539138 
 906           4095.75922568337 
 907           3947.41101986524 
 908           3765.48342308257 
 909           3611.40680746356 
 910           3459.25502590093 
 911           3316.21813333634 
 912           3208.55366944886 
 913           3132.58621138421 
 914           3060.42473437179 
 915           2980.79737207922 
 916           2937.89929137116 
 917           2914.31392629533 
 918           2876.13330078127 
 919           2875.48787636392 
 920           2766.41395602954 
 921           2626.50896181326 
 922           2547.47870126696 
 923           2512.93223488123 
 924           2515.45995800109 
 925           2471.55350832156 
 926           2362.96179941853 
 927           2228.80351827319 
 928           2131.50443841183 
 929           2113.64940958246 
 930           2115.90421379424 
 931           2127.52506305232 
 932           2162.04344077363 
 933           2160.20061593972 
 934           2052.08555742693 
 935           1999.23235693226 
 936           1956.01887767135 
 937           1977.51820073236 
 938           2066.86802624606 
 939           2037.06909380479 
 940           1919.23284036888 
 941           1790.06627065031 
 942           1718.15425359373 
 943           1706.71918789205 
 944           1723.60549277593 
 945           1782.17621675401 
 946           1776.36179046545 
 947           1735.03378300662 
 948           1705.94285470399 
 949           1684.41509723381 
 950           1686.91381856449 
 951           1635.48507839766 
 952           1620.40623072487 
 953           1637.99150414037 
 954           1633.2106920007 
 955           1671.01179996564 
 956           1671.0647126492 
 957           1674.98554614753 
 958           1701.9018396848 
 959           1714.19513712389 
 960           1695.77432346828 
 961           1673.22267460432 
 962           1677.69502481703 
 963           1675.04014649542 
 964           1676.14149124721 
 965           1695.90065298219 
 966           1642.81660590912 
 967           1621.97612380121 
 968           1627.46950609623 
 969           1648.21475377407 
 970           1693.30120499001 
 971           1728.46934134773 
 972           1767.33127220051 
 973           1783.15003154712 
 974           1787.31528220608 
 975           1790.40390564789 
 976           1769.42379710629 
 977           1736.49415828249 
 978           1728.77048826497 
 979           1732.30384308827 
 980           1751.05350462833 
 981           1810.52878127624 
 982           1877.25825656533 
 983           1873.40337670069 
 984           1863.93357838263 
 985           1827.38904740823 
 986           1784.98167959033 
 987           1830.82692530941 
 988           1867.32935652539 
 989           1910.24020498689 
 990           1898.61341124349 
 991           1918.43099070045 
 992           2051.95856573474 
 993           2154.87484139284 
 994           2267.33951284839 
 995           2276.66574179211 
 996           2218.85768043243 
 997           2174.97405446272 
 998           2138.16476486303 
 999           2139.92392698579 
 1000          2165.69945054615 
 1001          2237.48590399178 
 1002          2355.08744292494 
 1003          2480.05710479717 
 1004          2553.03106188581 
 1005          2517.60309922739 
 1006          2532.90349192788 
 1007          2541.99481798347 
 1008          2597.87607621274 
 1009          2785.96167349727 
 1010          2903.13438510066 
 1011          3037.28934893637 
 1012          3054.41860275155 
 1013          2958.6546228982 
 1014          2957.47428239764 
 1015          3110.68807391799 
 1016          3194.97665731644 
 1017          3309.66123363723 
 1018          3471.94386719964 
 1019          3680.35402873312 
 1020          3915.2776449616 
 1021          4086.73994948767 
 1022          4173.12589167892 
 1023          4317.17644209388 
 1024          4542.54887141655 
 1025          4796.80966506974 
 1026          5060.01649873968 
 1027          5338.61970115627 
 1028          5612.43360384924 
 1029          5900.29233547572 
 1030          6258.21661982874 
 1031          6659.01082650618 
 1032          7086.24902751733 
 1033          7628.17746499781 
 1034          8213.43637790728 
 1035          8763.67201109812 
 1036          9462.79517102917 
 1037          10319.7467354074 
 1038          11152.2581857626 
 1039          11994.2500287095 
 1040          12848.6130132378 
 1041          13645.0663899563 
 1042          14383.2637623335 
 1043          15115.1469018801 
 1044          15783.9534647579 
 1045          16285.7801974382 
 1046          16817.9062359456 
 1047          17129.4103939734 
 1048          17221.8661140358 
 1049          17229.7080168423 
 1050          17061.8156258819 
 1051          16595.2352266704 
 1052          15992.1793808336 
 1053          15229.7288332592 
 1054          14523.4297739649 
 1055          13879.5571012151 
 1056          13152.4666856306 
 1057          12564.8553014304 
 1058          12133.3876076616 
 1059          11694.8956500833 
 1060          11318.5524122456 
 1061          11109.3533567849 
 1062          10994.1284345801 
 1063          10878.9709808139 
 1064          10832.8452648968 
 1065          10821.6230947369 
 1066          10699.7947912207 
 1067          10518.4255222765 
 1068          10380.2306225682 
 1069          10233.3233592867 
 1070          10173.0987456837 
 1071          10185.5134996685 
 1072          10170.3176726865 
 1073          10110.8161713516 
 1074          10073.00919648 
 1075          10125.0590085783 
 1076          10328.0013873631 
 1077          10660.2964576518 
 1078          11052.7313124612 
 1079          11439.0320763793 
 1080          11782.8786895526 
 1081          12108.0597386423 
 1082          12513.5180257029 
 1083          13093.3337496908 
 1084          13798.2413494086 
 1085          14365.1576681161 
 1086          14750.2265558206 
 1087          15194.1130999202 
 1088          15745.6603749924 
 1089          16155.6004346716 
 1090          16581.1451702171 
 1091          16838.3389391285 
 1092          16861.6977324113 
 1093          16698.7156557558 
 1094          16277.1765609214 
 1095          15693.4227787672 
 1096          14944.1390715199 
 1097          14126.4718902763 
 1098          13304.5473635755 
 1099          12441.4798694581 
 1100          11590.3595979307 
 1101          10899.2266418587 
 1102          10222.1827957053 
 1103          9592.59539012155 
 1104          8934.98022866307 
 1105          8421.24584776105 
 1106          8118.08296175684 
 1107          7785.82435263329 
 1108          7489.15969103293 
 1109          7200.18266684016 
 1110          6965.16018435131 
 1111          6830.16811721433 
 1112          6769.32531502223 
 1113          6692.72124564932 
 1114          6555.18951003339 
 1115          6451.70842454589 
 1116          6352.61680344998 
 1117          6248.07570275359 
 1118          6130.81328444203 
 1119          5996.2800537427 
 1120          5803.96886134379 
 1121          5510.4674646922 
 1122          5300.19249511659 
 1123          5181.10011872084 
 1124          5067.92644741287 
 1125          4919.30002944178 
 1126          4750.6953278537 
 1127          4577.9138460014 
 1128          4404.90999598711 
 1129          4270.6436063155 
 1130          4149.68973897056 
 1131          3951.10874790676 
 1132          3732.70218482694 
 1133          3546.69759032366 
 1134          3369.23547419985 
 1135          3330.2367663443 
 1136          3302.87847041608 
 1137          3278.46882409149 
 1138          3156.48536483237 
 1139          3027.44401785043 
 1140          2994.91158440499 
 1141          2927.89658335496 
 1142          2849.53556515972 
 1143          2771.67283076302 
 1144          2685.2041178419 
 1145          2554.97034608844 
 1146          2477.89780012211 
 1147          2508.66350475669 
 1148          2517.08525193756 
 1149          2471.34355756365 
 1150          2418.46370134274 
 1151          2419.06802389374 
 1152          2452.10992655847 
 1153          2449.61626249025 
 1154          2394.08556796356 
 1155          2332.70431416507 
 1156          2296.27869054472 
 1157          2263.95557218759 
 1158          2195.0767321123 
 1159          2136.46179522455 
 1160          2107.28750695181 
 1161          2103.47310237143 
 1162          2101.52782082974 
 1163          2030.82565053172 
 1164          1960.76648471147 
 1165          1917.46785013774 
 1166          1914.92674502918 
 1167          1963.90987203164 
 1168          2014.99399191938 
 1169          1979.70198635598 
 1170          1873.6393889325 
 1171          1837.22453092559 
 1172          1821.4115728524 
 1173          1797.36894613577 
 1174          1829.92040312497 
 1175          1849.95622100498 
 1176          1797.15010432907 
 1177          1760.57344281524 
 1178          1723.51476588917 
 1179          1708.33696268428 
 1180          1793.45583111576 
 1181          1830.32319017607 
 1182          1830.31514231182 
 1183          1810.92799749318 
 1184          1742.81911010205 
 1185          1755.52855153935 
 1186          1786.85983101862 
 1187          1817.98711063122 
 1188          1786.61184533713 
 1189          1756.1489946525 
 1190          1790.40385588692 
 1191          1855.98744515918 
 1192          1932.49085954469 
 1193          2019.33984995367 
 1194          1999.7225570134 
 1195          1935.17589059264 
 1196          1936.2416145869 
 1197          1968.97210971546 
 1198          1994.49433473998 
 1199          2059.95636690289 
 1200          2139.36658019685 
 1201          2128.18387609191 
 1202          2122.93400606541 
 1203          2075.66410298628 
 1204          2082.84742763348 
 1205          2147.84440870186 
 1206          2247.32282462884 
 1207          2343.47489135937 
 1208          2342.97808682822 
 1209          2347.49339027401 
 1210          2436.13852727936 
 1211          2549.87767129431 
 1212          2701.31893667232 
 1213          2837.99133613442 
 1214          2921.03754515802 
 1215          3011.12857154873 
 1216          3128.09455739638 
 1217          3219.76372564289 
 1218          3326.71632405708 
 1219          3439.83435566595 
 1220          3528.8815394118 
 1221          3606.08834455501 
 1222          3694.32833740075 
 1223          3831.99567695624 
 1224          3988.95840720618 
 1225          4042.12146850735 
 1226          4103.02396794217 
 1227          4111.58981332284 
 1228          4120.76432099835 
 1229          4084.80733784498 
 1230          3989.92213566634 
 1231          3898.29904083299 
 1232          3779.67169157478 
 1233          3624.97422074131 
 1234          3586.47157192858 
 1235          3531.53848331927 
 1236          3533.24027394081 
 1237          3475.30412291022 
 1238          3384.14500712534 
 1239          3335.65597728442 
 1240          3336.33499063187 
 1241          3406.08430718917 
 1242          3418.36413982636 
 1243          3393.19703892724 
 1244          3356.69095028512 
 1245          3380.5146678444 
 1246          3474.09041075916 
 1247          3506.22521815129 
 1248          3500.43558968927 
 1249          3582.31667228635 
 1250          3685.30595729118 
 1251          3804.99725381607 
 1252          3864.49695432917 
 1253          3909.7951747442 
 1254          3993.22911453232 
 1255          4095.05610576331 
 1256          4165.86463255933 
 1257          4308.19742172042 
 1258          4585.99297674301 
 1259          4837.77089435604 
 1260          5130.7189879134 
 1261          5418.95244161147 
 1262          5681.77620459908 
 1263          5974.69403097692 
 1264          6290.01515154886 
 1265          6651.9994969584 
 1266          7085.01682427598 
 1267          7509.83769126396 
 1268          7890.24433520851 
 1269          8256.56995744902 
 1270          8459.67154892507 
 1271          8627.23191140112 
 1272          8728.72505653234 
 1273          8784.81397170151 
 1274          8846.26285722287 
 1275          8803.99846000562 
 1276          8570.52278709585 
 1277          8261.44958374539 
 1278          7943.46699453296 
 1279          7580.80825941834 
 1280          7276.43107535375 
 1281          6938.45711799255 
 1282          6636.72785532317 
 1283          6320.27910946036 
 1284          5986.6162309752 
 1285          5714.87495765443 
 1286          5424.69230871715 
 1287          5153.68716227542 
 1288          5054.98493044465 
 1289          4964.02080830612 
 1290          4793.44936125375 
 1291          4634.52693803049 
 1292          4457.63780238104 
 1293          4297.45393495735 
 1294          4194.0914799259 
 1295          4091.19546618156 
 1296          3970.63518345536 
 1297          3861.610578974 
 1298          3875.91666293986 
 1299          3875.63376689831 
 1300          3848.16505213245 
 1301          3774.66249426975 
 1302          3772.64562200552 
 1303          3817.81126772833 
 1304          3820.07469104366 
 1305          3760.96442358636 
 1306          3645.55280714619 
 1307          3626.74791462339 
 1308          3684.25212892126 
 1309          3660.93789597969 
 1310          3632.14649489378 
 1311          3574.10402109126 
 1312          3587.20387950931 
 1313          3581.1023521987 
 1314          3520.12701506064 
 1315          3494.82080320084 
 1316          3487.90104493936 
 1317          3552.11851173921 
 1318          3606.80999010433 
 1319          3622.25163371512 
 1320          3659.32788693896 
 1321          3683.54255104396 
 1322          3663.5164792372 
 1323          3655.55104450942 
 1324          3659.27446291696 
 1325          3638.60542935065 
 1326          3580.62852563219 
 1327          3498.49450643106 
 1328          3502.75799182673 
 1329          3620.66680586952 
 1330          3757.06194585575 
 1331          3809.90321658879 
 1332          3782.64667465281 
 1333          3778.58216078374 
 1334          3806.92015881976 
 1335          3902.28252513085 
 1336          4026.85237616617 
 1337          4053.79183219983 
 1338          4013.31399403903 
 1339          3944.72574021057 
 1340          3866.82797502386 
 1341          3955.97322443879 
 1342          4069.89704695637 
 1343          4138.60156152088 
 1344          4187.12542687903 
 1345          4230.12892259341 
 1346          4290.88321937203 
 1347          4304.83651823803 
 1348          4267.35386511768 
 1349          4356.53038765239 
 1350          4591.39030684693 
 1351          4791.07873503968 
 1352          4887.25395280283 
 1353          4922.04127290891 
 1354          4941.41340279933 
 1355          4980.14036144818 
 1356          5065.77684596013 
 1357          5101.93069111445 
 1358          5091.59324870993 
 1359          5037.51085026276 
 1360          4922.9858972653 
 1361          4886.68851390317 
 1362          4944.03281473814 
 1363          4999.27407620606 
 1364          5068.05372917974 
 1365          5066.0457348951 
 1366          5012.17230474017 
 1367          4985.31188554081 
 1368          5050.32663257952 
 1369          5140.31091995366 
 1370          5245.16619627049 
 1371          5394.91607666866 
 1372          5447.61575505108 
 1373          5423.59471653024 
 1374          5514.38535892554 
 1375          5571.07908373834 
 1376          5710.46679687458 
 1377          5846.29082795449 
 1378          6028.79071883535 
 1379          6105.44082427962 
 1380          6090.00567726715 
 1381          6082.04229710578 
 1382          6156.78531317599 
 1383          6276.94206323044 
 1384          6413.78686779807 
 1385          6492.5233265822 
 1386          6476.86257283479 
 1387          6483.21825449434 
 1388          6457.22996571665 
 1389          6526.62456149911 
 1390          6636.40293874047 
 1391          6698.47989366292 
 1392          6726.91451768212 
 1393          6763.51755788258 
 1394          6838.03759068519 
 1395          6880.64301952166 
 1396          6997.74373114589 
 1397          7203.798605871 
 1398          7421.1142429484 
 1399          7589.86058253054 
 1400          7679.45105940639 
 1401          7812.09182838093 
 1402          7925.89004844514 
 1403          8111.14782515406 
 1404          8262.27638318923 
 1405          8503.5535589589 
 1406          8819.47705053644 
 1407          9071.57564052203 
 1408          9346.29259492615 
 1409          9603.97978922746 
 1410          9874.47815479559 
 1411          10116.0381861689 
 1412          10335.1715531885 
 1413          10596.9769859964 
 1414          10862.918847722 
 1415          11168.616097113 
 1416          11456.607851852 
 1417          11695.0726953781 
 1418          11964.5632751814 
 1419          12222.1975162527 
 1420          12484.8220242714 
 1421          12689.7804958067 
 1422          12778.3871763869 
 1423          12917.723603486 
 1424          13092.5689037333 
 1425          13242.7633315734 
 1426          13442.5920566559 
 1427          13554.3768963697 
 1428          13617.6671343624 
 1429          13854.9386517089 
 1430          14106.0384065073 
 1431          14286.9965498272 
 1432          14476.5223844441 
 1433          14584.8929657403 
 1434          14721.8725838964 
 1435          15015.2730977121 
 1436          15392.6488124148 
 1437          15813.5394344384 
 1438          16299.2702054586 
 1439          16794.5758136235 
 1440          17391.0388310578 
 1441          18095.1990419448 
 1442          18804.6950799746 
 1443          19559.6973580089 
 1444          20380.0500350564 
 1445          21237.8101853493 
 1446          22007.007670867 
 1447          22626.2105978695 
 1448          23304.4089251432 
 1449          23971.459242643 
 1450          24547.4014181226 
 1451          24864.2458010578 
 1452          24999.2250387858 
 1453          25027.3389115214 
 1454          24664.106971506 
 1455          24132.4198697076 
 1456          23407.5907116074 
 1457          22607.9874522934 
 1458          21846.5094404328 
 1459          20885.5129524939 
 1460          19719.2990582074 
 1461          18600.0170634121 
 1462          17595.98122077 
 1463          16606.4955719951 
 1464          15658.8641576321 
 1465          14848.8909292617 
 1466          14173.796910541 
 1467          13639.2833945253 
 1468          13232.7426737453 
 1469          12910.1187322968 
 1470          12476.6970238945 
 1471          12109.4774784551 
 1472          11842.8440872699 
 1473          11677.3543507244 
 1474          11592.0483708303 
 1475          11494.8879921707 
 1476          11551.3727240931 
 1477          11595.0014737962 
 1478          11577.2740395617 
 1479          11529.2903385607 
 1480          11508.0647749374 
 1481          11546.7545641984 
 1482          11428.795177974 
 1483          11191.1575359203 
 1484          10965.0233586849 
 1485          10718.9902773083 
 1486          10434.1230400539 
 1487          10062.1332097834 
 1488          9634.43950387522 
 1489          9191.25128207946 
 1490          9006.43987693022 
 1491          8809.34025098343 
 1492          8488.69298793107 
 1493          8014.19375626244 
 1494          7590.93672546195 
 1495          7389.28000077693 
 1496          7257.38464413143 
 1497          7099.08815370763 
 1498          6895.84988375353 
 1499          6711.20472489603 
 1500          6458.85064301563 
 1501          6297.54425540652 
 1502          6139.63500472407 
 1503          5959.47318383232 
 1504          5785.93634815499 
 1505          5628.39153282408 
 1506          5570.29977394569 
 1507          5517.9126141446 
 1508          5430.6464494335 
 1509          5357.65047274764 
 1510          5280.95679762941 
 1511          5167.35854812529 
 1512          5003.37924637092 
 1513          4946.28599383063 
 1514          4908.27658766507 
 1515          4768.26086854972 
 1516          4659.9632166143 
 1517          4564.14234498348 
 1518          4582.45271143216 
 1519          4568.27421020153 
 1520          4505.76550674434 
 1521          4473.24708559107 
 1522          4440.46314868398 
 1523          4344.11736154711 
 1524          4210.1551415756 
 1525          4154.15862137998 
 1526          4095.84934737098 
 1527          4084.16704044412 
 1528          4097.78654315619 
 1529          4039.20314979639 
 1530          3915.04915896943 
 1531          3755.34032466725 
 1532          3747.46379888845 
 1533          3766.97980856076 
 1534          3754.0220000857 
 1535          3714.94643586316 
 1536          3659.19811487357 
 1537          3615.27403099785 
 1538          3558.01139799529 
 1539          3501.86218814883 
 1540          3413.50114568703 
 1541          3345.01648711401 
 1542          3361.80083145604 
 1543          3340.23927510768 
 1544          3276.32147508401 
 1545          3235.23307632064 
 1546          3189.92513585214 
 1547          3160.99293762038 
 1548          3174.452110306 
 1549          3167.47273613901 
 1550          3115.4894679447 
 1551          3078.11007473054 
 1552          3034.8511213367 
 1553          2974.24471667781 
 1554          2927.19646921276 
 1555          2868.28154723103 
 1556          2871.38779594589 
 1557          2859.85288566062 
 1558          2887.77760739185 
 1559          2912.91612654789 
 1560          2903.24141166935 
 1561          2883.60327030743 
 1562          2814.86857870692 
 1563          2803.62382397171 
 1564          2814.14642187447 
 1565          2788.58766970091 
 1566          2649.52784062592 
 1567          2553.79112882326 
 1568          2475.31485014713 
 1569          2524.96594743166 
 1570          2584.76620217886 
 1571          2575.82321790693 
 1572          2540.79011132508 
 1573          2557.55099011721 
 1574          2622.300638258 
 1575          2631.17250947477 
 1576          2604.24462972805 
 1577          2619.23954133824 
 1578          2604.95291299634 
 1579          2578.09970486824 
 1580          2563.33847448687 
 1581          2597.11442312058 
 1582          2580.40575819195 
 1583          2566.26472391015 
 1584          2524.87436483068 
 1585          2503.72602569255 
 1586          2517.32437585573 
 1587          2508.69314875475 
 1588          2451.74851737478 
 1589          2340.48374183762 
 1590          2302.69338865629 
 1591          2300.54961367595 
 1592          2302.42131336997 
 1593          2243.009767928 
 1594          2193.96637166791 
 1595          2172.62652286302 
 1596          2213.3154405094 
 1597          2269.65698941762 
 1598          2263.91403854443 
 1599          2234.52338039366 
 1600          2251.52162598813 
 1601          2295.91851177569 
 1602          2328.59014120436 
 1603          2357.88499128721 
 1604          2307.632590542 
 1605          2236.38869051646 
 1606          2171.17825954502 
 1607          2132.839891054 
 1608          2124.98228900503 
 1609          2129.09116162582 
 1610          2143.51171499453 
 1611          2143.30218354025 
 1612          2111.14084809672 
 1613          2141.35411476684 
 1614          2213.08547960184 
 1615          2241.73923167906 
 1616          2272.17615182227 
 1617          2244.69960158304 
 1618          2147.1560386074 
 1619          2137.6392042762 
 1620          2181.29702966761 
 1621          2209.16345840119 
 1622          2282.63106420526 
 1623          2294.15285572593 
 1624          2206.22480786241 
 1625          2043.79330439777 
 1626          1982.91374995092 
 1627          2069.68297461171 
 1628          2109.43584378673 
 1629          2066.20670925788 
 1630          2011.81437070337 
 1631          2000.86776393737 
 1632          1969.22296735151 
 1633          1891.89340124641 
 1634          1847.40316504712 
 1635          1915.39641283209 
 1636          1996.12577939193 
 1637          2021.42359029691 
 1638          1931.91868293704 
 1639          1825.05842106433 
 1640          1830.97028010408 
 1641          1842.65218811349 
 1642          1817.97101071016 
 1643          1870.70200334295 
 1644          1725.03883475286 
 1645          1358.77293083588 
 1646          1277.23344042402 
 1647          1216.75367988857 
 1648          1676.16682703943 
 1649          1943.33880283124 
 1650          1888.05071857073 
 1651          1929.30575054341 
 1652          1929.05870305443 
 1653          1909.42764178993 
 1654          1901.20584065882 
 1655          1946.02050326942 
 1656          1910.86197042605 
 1657          1899.66085990305 
 1658          1889.01853755806 
 1659          1937.1044636038 
 1660          1909.74680116112 
 1661          1881.9204444049 
 1662          1900.87118326269 
 1663          1921.88876123936 
 1664          1976.98432036832 
 1665          1941.49003021396 
 1666          1980.66742889239 
 1667          2022.31255253167 
 1668          2043.99836892061 
 1669          2057.440911334 
 1670          2060.87249753139 
 1671          1996.52490708591 
 1672          1985.90407516851 
 1673          1952.43579239213 
 1674          1922.01891915921 
 1675          2019.17303057664 
 1676          2077.04231222037 
 1677          2180.05737890676 
 1678          2280.35155876121 
 1679          2242.80445661314 
 1680          2247.22562142285 
 1681          2231.784255545 
 1682          2309.33271872747 
 1683          2334.53260763173 
 1684          2404.57801180256 
 1685          2482.97485734778 
 1686          2514.66344239592 
 1687          2593.25097963615 
 1688          2622.14114351779 
 1689          2571.60291014036 
 1690          2590.33802864208 
 1691          2751.22908146634 
 1692          3083.215533604 
 1693          3437.74526422747 
 1694          3731.2563017312 
 1695          3989.35739652497 
 1696          4169.47008197545 
 1697          4370.95747608116 
 1698          4722.26482356174 
 1699          5132.78469843502 
 1700          5524.89707354503 
 1701          5988.21796056625 
 1702          6477.65650765757 
 1703          6962.87153667641 
 1704          7474.38370621741 
 1705          7725.19266905096 
 1706          7780.20849465516 
 1707          7811.99085736443 
 1708          7854.76979624496 
 1709          7734.3712587982 
 1710          7613.63711914653 
 1711          7213.15541627067 
 1712          6846.59508094028 
 1713          6443.4489301618 
 1714          6119.40852763752 
 1715          5840.66301851199 
 1716          5510.91002945637 
 1717          5079.41793424263 
 1718          4676.81122072774 
 1719          4392.58078308504 
 1720          4153.6543262685 
 1721          3815.17254041492 
 1722          3502.13581716096 
 1723          3292.7584331683 
 1724          3169.58279950272 
 1725          2956.32866914676 
 1726          2731.48920155878 
 1727          2556.13882348754 
 1728          2518.42932791256 
 1729          2438.67565963336 
 1730          2361.36420791146 
 1731          2270.62141385578 
 1732          2270.91137233144 
 1733          2292.42238868474 
 1734          2238.47235975314 
 1735          2162.64024521971 
 1736          2045.86815001929 
 1737          2017.8684129356 
 1738          2010.57772142131 
 1739          1996.76337881105 
 1740          1904.38771054131 
 1741          1832.61840429488 
 1742          1805.21928248211 
 1743          1848.84673975499 
 1744          1964.05257666854 
 1745          1912.59218906205 
 1746          1858.93882142762 
 1747          1824.09209524297 
 1748          1863.9191186637 
 1749          1857.60386636726 
 1750          1841.96459995235 
 1751          1869.60231920517 
 1752          1919.15070455785 
 1753          1801.39069217163 
 1754          1736.81988810925 
 1755          1723.19675448836 
 1756          1766.85885170323 
 1757          1666.05665245315 
 1758          1597.01054545562 
 1759          1703.3767829626 
 1760          1706.6674714293 
 1761          1680.60997744822 
 1762          1666.94622288986 
 1763          1745.57106056749 
 1764          1707.60869648369 
 1765          1625.46040483853 
 1766          1592.93566691831 
 1767          1565.21476893148 
 1768          1636.47327754495 
 1769          1648.72866373037 
 1770          1624.17757823833 
 1771          1471.51112424264 
 1772          1442.58262799883 
 1773          1427.39858345281 
 1774          1389.23096238614 
 1775          1437.55391646455 
 1776          1498.12728689432 
 1777          1443.20747485151 
 1778          1431.55897307228 
 1779          1407.9151047221 
 1780          1341.50444680741 
 1781          1292.91884574407 
 1782          1284.83855587928 
 1783          1335.95162808085 
 1784          1381.96051977166 
 1785          1349.52024177219 
 1786          1365.68157478851 
 1787          1382.68294194776 
 1788          1395.96455638238 
 1789          1359.3279433316 
 1790          1321.4919095293 
 1791          1265.59610256914 
 1792          1293.73409272613 
 1793          1327.67730903788 
 1794          1354.7562326075 
 1795          1300.95592058463 
 1796          1257.34910945931 
 1797          1196.76517260555 
 1798          1167.35869829303 
 1799          1160.86619127108 
 1800          1207.96407149757 
 1801          1266.92607675638 
 1802          1317.49285110697 
 1803          1282.97910684129 
 1804          1244.24595972382 
 1805          1164.7989381835 
 1806          1189.72838852189 
 1807          1280.56779542028 
 1808          1337.11457825955 
 1809          1382.73403315495 
 1810          1355.41234466928 
 1811          1325.86309670185 
 1812          1179.72967408171 
 1813          1173.30623323377 
 1814          1231.16700413391 
 1815          1284.27054225657 
 1816          1262.30771649789 
 1817          1216.78674242721 
 1818          1239.4111982917 
 1819          1236.71474604236 
 1820          1262.21125292098 
 1821          1243.19298501773 
 1822          1221.78487894289 
 1823          1184.7227873293 
 1824          1160.54658865438 
 1825          1116.19151945373 
 1826          1113.1996563864 
 1827          1161.40275607713 
 1828          1197.68212911618 
 1829          1130.73632900867 
 1830          1073.09645070693 
 1831          1127.70953463167 
 1832          1116.31804246325 
 1833          982.194492774877 
 1834          919.639373489955 
 1835          1073.32609428199 
 1836          1162.43188720714 
 1837          1108.01669594514 
 1838          1083.70763563469 
 1839          1144.39995682248 
 1840          1135.55366942794 
 1841          1082.79788781174 
 1842          1062.37335079743 
 1843          1126.6013996776 
 1844          1157.18413928477 
 1845          1204.10888103589 
 1846          1165.05582273129 
 1847          1102.61418035759 
 1848          1081.13238489012 
 1849          1092.42220975552 
 1850          1141.13662210221 
 1851          1179.59938736968 
 1852          1200.34941359615 
 1853          1180.68767000056 
 1854          1084.4406129545 
 1855          975.335563723853 
 1856          951.106310890746 
 1857          943.212082020409 
 1858          1024.0182305841 
 1859          1003.54641487471 
 1860          1023.12317237952 
 1861          1027.9793391257 
 1862          1048.12870670432 
 1863          1058.35434875524 
 1864          1046.11251833694 
 1865          1075.84017059663 
 1866          994.385109475275 
 1867          1011.37547888617 
 1868          1026.72687703554 
 1869          1056.05645523198 
 1870          1062.93510095504 
 1871          982.272442967469 
 1872          1025.66702257351 
 1873          1046.88807711627 
 1874          1086.23592602993 
 1875          1099.98598747259 
 1876          1088.94294608624 
 1877          1080.56628169139 
 1878          1047.06586603328 
 1879          999.40372891633 
 1880          1131.84713714919 
 1881          1167.75571639646 
 1882          1110.02433486384 
 1883          976.4366075876 
 1884          1041.11239369405 
 1885          1059.19639710318 
 1886          1062.54592493547 
 1887          1026.74355876178 
 1888          974.166877222803 
 1889          1054.1604593602 
 1890          996.070133289891 
 1891          963.610634440434 
 1892          951.790195666132 
 1893          965.656897465359 
 1894          1022.07587625105 
 1895          1033.16089759766 
 1896          1041.96740090473 
 1897          1064.19042077926 
 1898          1053.31749967207 
 1899          1079.31259248479 
 1900          1054.50085737559 
 1901          1011.90035761042 
 1902          1060.16724322405 
 1903          1151.38929084014 
 1904          1137.60149421423 
 1905          1039.71001704349 
 1906          996.718630229219 
 1907          1043.61998090149 
 1908          1126.70534369541 
 1909          1132.96196553083 
 1910          1146.68099792867 
 1911          1125.17983931847 
 1912          1091.23016749039 
 1913          993.66490946171 
 1914          912.326651031225 
 1915          886.913308263566 
 1916          944.397104176604 
 1917          1028.27980187097 
 1918          1115.30797219182 
 1919          1117.57272205234 
 1920          1087.38434163174 
 1921          1038.84846250954 
 1922          1016.17409178174 
 1923          1001.93606223001 
 1924          1031.7391056932 
 1925          1025.35720215799 
 1926          1036.74368584468 
 1927          1076.77984798971 
 1928          1130.50645369977 
 1929          1134.89557863068 
 1930          1110.47087934896 
 1931          1054.48919598668 
 1932          1021.54777838674 
 1933          1005.62451923014 
 1934          1008.28706234892 
 1935          1058.77537075513 
 1936          1043.97587565479 
 1937          1049.81615705173 
 1938          992.944721009233 
 1939          930.244407404566 
 1940          903.268243484518 
 1941          866.668499987801 
 1942          871.86552307626 
 1943          886.26739888228 
 1944          838.557265001017 
 1945          806.790298061374 
 1946          813.560613695367 
 1947          861.018435462055 
 1948          864.071738470328 
 1949          923.340289930017 
 1950          903.819962680897 
 1951          931.313346153504 
 1952          944.53316505726 
 1953          1026.69044704684 
 1954          1052.77208926126 
 1955          1076.867130706 
 1956          979.025339660078 
 1957          779.784030208644 
 1958          752.756264475974 
 1959          811.39131434773 
 1960          934.177105501463 
 1961          992.638126421439 
 1962          1030.21844547602 
 1963          1034.33156822381 
 1964          1005.28696606581 
 1965          1004.38974284277 
 1966          980.117063906671 
 1967          961.194925328869 
 1968          918.634341935187 
 1969          875.79605490295 
 1970          881.96975645499 
 1971          873.292080718128 
 1972          891.770420017181 
 1973          908.739849446643 
 1974          900.663921683708 
 1975          895.881119614586 
 1976          890.808406498059 
 1977          844.539024948174 
 1978          790.095743386439 
 1979          772.5637928835 
 1980          791.963389213632 
 1981          843.300237025349 
 1982          971.75972063622 
 1983          1080.02080587032 
 1984          1024.98488992633 
 1985          924.991574675315 
 1986          851.352393194367 
 1987          856.966503200844 
 1988          819.717702476859 
 1989          777.169994967608 
 1990          741.436623517568 
 1991          794.380359341287 
 1992          861.428709733339 
 1993          831.780660770743 
 1994          800.120372403597 
 1995          805.685429378175 
 1996          814.30150249738 
 1997          831.582389094428 
 1998          824.349895576553 
 1999          765.073334051589 
 2000          784.629801457067 
 2001          815.729393342134 
 2002          842.749405178743 
 2003          789.443688867017 
 2004          757.61393376567 
 2005          744.744688498867 
 2006          812.650325121956 
 2007          827.169152710338 
 2008          778.024323814313 
 2009          734.473631865952 
 2010          685.940752100395 
 2011          685.275043995401 
 2012          735.003206586131 
 2013          809.546534090294 
 2014          831.859199688002 
 2015          833.057476644763 
 2016          768.547569105732 
 2017          668.415693639576 
 2018          553.551498899617 
 2019          575.159178227182 
 2020          641.916501430399 
 2021          720.964325638488 
 2022          712.239212460664 
 2023          719.663796035421 
 2024          726.852131760739 
 2025          674.902676554664 
 2026          627.659498426691 
 2027          642.065956802498 
 2028          704.077750109947 
 2029          758.254849178748 
 2030          764.677983593454 
 2031          680.145809817647 
 2032          592.467507020265 
 2033          681.41795660942 
 2034          725.602822658443 
 2035          739.664731090478 
 2036          777.353775153414 
 2037          911.635856377204 
 2038          896.08912624153 
 2039          797.800774012464 
 2040          679.045447685759 
 2041          716.796310417784 
 2042          745.623970688925 
 2043          733.765930366297 
 2044          594.510940654441 
 2045          519.398140759234 
 2046          560.433194539011 
 2047          656.031640376139 
 2048          699.970458752827 
 2049          722.882896999108 
 2050          741.718782325259 
 2051          743.990070316234 
 2052          654.615249352116 
 2053          578.236053878045 
 2054          586.534120748627 
 2055          658.214142695526 
 2056          681.062034779895 
 2057          622.09759930191 
 2058          527.535067701821 
 2059          477.809129852349 
 2060          564.953637101836 
 2061          658.515863089188 
 2062          599.726246445661 
 2063          501.575090538846 
 2064          578.150500881419 
 2065          561.23743804353 
 2066          514.293840921892 
 2067          524.684661022154 
 2068          727.759096728875 
 2069          788.532693204772 
 2070          768.905711816958 
 2071          669.632708006858 
 2072          654.516053946345 
 2073          602.186238747158 
 2074          615.567354156937 
 2075          617.827641744742 
 2076          611.986106441029 
 2077          582.826093547535 
 2078          649.194140018176 
 2079          639.007019924177 
 2080          605.299554481802 
 2081          672.307363955928 
 2082          725.119925883469 
 2083          669.231637846251 
 2084          644.263410617447 
 2085          658.048525136658 
 2086          648.919908974475 
 2087          585.568441156683 
 2088          585.882670628764 
 2089          610.050472924338 
 2090          627.118707308841 
 2091          682.375256170251 
 2092          689.523788001262 
 2093          680.784077260133 
 2094          633.221661776224 
 2095          651.281285839812 
 2096          606.135558939015 
 2097          463.427578558266 
 2098          430.035428034374 
 2099          534.438574221389 
 2100          581.79273883211 
 2101          526.63796730049 
 2102          534.692239170878 
 2103          616.112944662662 
 2104          720.001791868786 
 2105          666.701812681498 
 2106          507.661455409934 
 2107          596.773380402833 
 2108          665.863822983836 
 2109          648.134184791626 
 2110          567.048056109745 
 2111          618.376386860045 
 2112          613.813739473385 
 2113          559.174764364022 
 2114          565.004160626454 
 2115          557.443997144922 
 2116          618.131855561212 
 2117          549.846432430442 
 2118          463.968118052373 
 2119          467.44929175416 
 2120          572.022209610161 
 2121          639.451049463515 
 2122          540.098949580935 
 2123          544.784123496433 
 2124          541.440574189078 
 2125          565.396611545757 
 2126          506.955930931998 
 2127          585.174662709955 
 2128          559.25154952177 
 2129          506.437319136396 
 2130          483.04339161124 
 2131          495.955092480427 
 2132          539.54108150598 
 2133          495.000861186099 
 2134          507.086166453081 
 2135          552.586963861419 
 2136          574.756985961971 
 2137          573.690189043194 
 2138          547.553843555185 
 2139          481.300039578333 
 2140          439.055521522266 
 2141          541.254992500349 
 2142          593.042373351734 
 2143          634.516539250762 
 2144          595.439540922103 
 2145          653.584167568428 
 2146          606.966316294744 
 2147          572.604709462954 
 2148          536.851138387757 
 2149          551.401193197843 
 2150          509.727404514018 
 2151          525.74955487937 
 2152          546.141852630713 
 2153          439.672291110469 
 2154          328.500031480687 
 2155          380.240418403798 
 2156          509.672326779357 
 2157          533.99597289227 
 2158          483.849532163483 
 2159          457.028456715706 
 2160          575.41822421696 
 2161          590.777628395643 
 2162          564.392196863114 
 2163          575.964223088289 
 2164          555.411062179192 
 2165          524.424223649992 
 2166          548.934211144631 
 2167          531.010030194705 
 2168          506.855651497343 
 2169          512.883980502558 
 2170          692.598649299142 
 2171          801.724405904941 
 2172          799.782921348028 
 2173          692.337050227096 
 2174          594.334028496371 
 2175          546.707576790062 
 2176          547.228476309995 
 2177          560.572712566226 
 2178          489.478105660439 
 2179          445.184073600751 
 2180          535.977244432736 
 2181          530.815516595078 
 2182          449.973772482072 
 2183          508.66826082093 
 2184          602.98248934048 
 2185          571.935566755655 
 2186          462.863108044462 
 2187          324.758508247473 
 2188          380.903788306343 
 2189          461.897960148509 
 2190          498.852919751891 
 2191          532.280529202914 
 2192          451.069441605025 
 2193          509.819642415853 
 2194          572.186561801902 
 2195          563.259607145523 
 2196          460.522638052232 
 2197          412.26106107061 
 2198          502.045456775625 
 2199          604.179147186354 
 2200          544.754960292806 
 2201          414.259671822983 
 2202          341.26614737956 
 2203          359.125145569445 
 2204          593.577348221731 
 2205          568.704730363055 
 2206          489.518168978882 
 2207          488.78744838107 
 2208          575.182031705815 
 2209          596.652710443882 
 2210          541.280926828834 
 2211          472.737315586355 
 2212          457.638361930676 
 2213          451.975844052213 
 2214          452.243220456864 
 2215          504.944535815665 
 2216          551.995479300398 
 2217          522.991502205349 
 2218          506.843654659266 
 2219          412.682149069831 
 2220          341.064669519585 
 2221          411.23090648094 
 2222          459.688103828234 
 2223          461.446472499922 
 2224          459.748555924757 
 2225          450.86966967863 
 2226          395.738131756666 
 2227          443.2701826649 
 2228          495.756924484996 
 2229          510.905088658249 
 2230          468.938134215827 
 2231          420.942568044328 
 2232          408.895085066174 
 2233          498.400281838147 
 2234          565.444253743278 
 2235          564.339351064225 
 2236          389.187955375741 
 2237          341.049575362057 
 2238          443.244769406432 
 2239          497.692361622846 
 2240          530.741735055945 
 2241          471.364063995671 
 2242          450.005093412848 
 2243          411.923649363189 
 2244          456.509852124412 
 2245          489.298731353157 
 2246          531.895605800892 
 2247          582.188631715464 
 2248          515.087474118524 
 2249          472.638667996696 
 2250          471.925813225892 
 2251          526.120346646521 
 2252          538.944129396579 
 2253          513.003700545279 
 2254          477.09358207212 
 2255          525.449614835321 
 2256          545.603678052914 
 2257          589.468372466474 
 2258          524.551281848554 
 2259          490.39645718184 
 2260          390.450838347536 
 2261          356.473208082962 
 2262          452.033435118528 
 2263          518.84088062607 
 2264          413.314173130503 
 2265          410.203760929372 
 2266          466.31252949197 
 2267          545.445396856477 
 2268          453.260040277912 
 2269          495.593247974841 
 2270          576.475529264125 
 2271          576.621473737701 
 2272          540.415211193807 
 2273          484.167333983338 
 2274          503.880905373742 
 2275          512.633572460857 
 2276          549.35014610113 
 2277          576.968380507594 
 2278          513.744708335005 
 2279          421.696156320844 
 2280          443.904420968147 
 2281          500.315932910312 
 2282          369.934871630364 
 2283          428.501979861754 
 2284          493.800479289672 
 2285          437.314417368394 
 2286          365.041184357168 
 2287          412.947379839063 
 2288          494.393820519517 
 2289          525.329353342605 
 2290          447.458012768576 
 2291          377.599120523405 
 2292          400.173708257052 
 2293          450.924497126486 
 2294          462.497359010417 
 2295          414.185120021357 
 2296          407.775762224039 
 2297          366.619613606561 
 2298          323.158851381111 
 2299          237.741931086292 
 2300          341.468770511924 
 2301          369.773301610023 
 2302          371.428127074614 
 2303          365.578661073437 
 2304          416.04016210723 
 2305          333.192473359302 
 2306          283.340553264981 
 2307          321.24823770586 
 2308          400.826026481796 
 2309          413.778232568488 
 2310          354.279968043501 
 2311          344.617186324759 
 2312          326.945213160649 
 2313          347.046752228129 
 2314          356.711393080436 
 2315          429.885976674722 
 2316          448.423406660463 
 2317          352.485587165927 
 2318          288.470670030125 
 2319          218.504476738328 
 2320          259.213802450072 
 2321          305.754359185368 
 2322          338.476172536769 
 2323          370.131888265448 
 2324          319.449291981427 
 2325          331.623089600559 
 2326          355.764844448143 
 2327          430.358798837086 
 2328          467.935327588317 
 2329          410.965309443971 
 2330          354.335126364138 
 2331          359.44910916298 
 2332          306.022007198263 
 2333          341.660446038759 
 2334          443.750540867921 
 2335          425.997193983687 
 2336          360.089559118 
 2337          419.191840809806 
 2338          389.086164618847 
 2339          211.169442305517 
##END=
