##TITLE=hexanol 1.jdx
##JCAMP-DX=5.00
##DATE=7/6/2010 2:17:43 PM
##DATATYPE=Raman Spectrum
##DATA CLASS=XYDATA
##ORIGIN=ENWAVE
##OWNER=ENWAVE
##NPOINTS=2090
##FIRSTX= 1
##LASTX= 2339
##MAXX= 2339
##MINX= 1
##XFACTOR=1.0000000000
##YFACTOR=1.0000000000
##FIRSTY= 320.866637778849
##DELTAX=1.000000000000
##XUNITS=1/CM
##YUNITS=ARBITRARY UNITS
##XYDATA=(X++(Y..Y))
 1             320.866637778849 
 251           320.866637778849 
 252           1353.37632765722 
 253           3229.96442460082 
 254           4969.84338985092 
 255           6524.03264069994 
 256           7550.63355219653 
 257           7662.83947394229 
 258           7643.23185060199 
 259           7876.35443525635 
 260           8242.70185413752 
 261           8542.92225987507 
 262           8733.91364164994 
 263           8905.18731752068 
 264           9178.61950090665 
 265           9480.356966415 
 266           9723.96656246862 
 267           9999.68646277925 
 268           10269.3235196664 
 269           10494.8616138011 
 270           10752.0941797603 
 271           11081.9367636674 
 272           11446.0156820902 
 273           11750.112524903 
 274           12057.9870699148 
 275           12388.6606607448 
 276           12666.9712398294 
 277           12934.5506160187 
 278           13229.2943108952 
 279           13551.5230161452 
 280           13903.0354173446 
 281           14202.9341169481 
 282           14362.0340049966 
 283           14478.380325752 
 284           14621.5574511342 
 285           14792.2366211792 
 286           14941.063237794 
 287           15076.3585341183 
 288           15214.2376401645 
 289           15315.2405347976 
 290           15397.8149001636 
 291           15514.9856817904 
 292           15710.3399024049 
 293           15939.4965021992 
 294           16178.7385279799 
 295           16475.630853839 
 296           16854.7550166381 
 297           17256.7705329045 
 298           17620.6175596086 
 299           18196.5806941238 
 300           19015.0074974026 
 301           19904.116643531 
 302           20901.4217108881 
 303           21971.6004411867 
 304           23055.0198653849 
 305           24229.2320901897 
 306           25444.3568185069 
 307           26594.4957828868 
 308           27638.7886195314 
 309           28558.8482481964 
 310           29202.6177079447 
 311           29269.6592668261 
 312           28860.4605896985 
 313           28195.6969721955 
 314           27411.0738432564 
 315           26444.6512401571 
 316           25362.8187456869 
 317           24326.7762172006 
 318           23227.7836246673 
 319           22059.1202836673 
 320           20915.9980021708 
 321           19830.2152721849 
 322           18741.4428271016 
 323           17651.9808410948 
 324           16756.6888779102 
 325           16060.8968249127 
 326           15455.1490787299 
 327           14837.7450844636 
 328           14286.6472449049 
 329           13868.1887239828 
 330           13549.1814317539 
 331           13246.4566458927 
 332           12932.660026367 
 333           12624.6933550359 
 334           12294.8447918289 
 335           11960.4988500432 
 336           11671.3024008656 
 337           11459.5877931712 
 338           11299.0667331206 
 339           11137.687782421 
 340           10952.5793570837 
 341           10861.109087376 
 342           10872.4605222369 
 343           10841.5179150063 
 344           10828.3323956545 
 345           10855.3146471049 
 346           10884.7407032203 
 347           10981.8513450778 
 348           11247.007598899 
 349           11725.8218839162 
 350           12319.1915359381 
 351           12938.3431855959 
 352           13548.2641972379 
 353           14175.6249610702 
 354           14840.5161518329 
 355           15492.6491924237 
 356           15982.1177022001 
 357           16088.1146546766 
 358           15800.0764015701 
 359           15293.6805639573 
 360           14684.964957893 
 361           13983.7170117096 
 362           13182.337710211 
 363           12363.5934376968 
 364           11607.5154387304 
 365           10903.5786880824 
 366           10157.5385917647 
 367           9477.88521479771 
 368           8909.70547986047 
 369           8386.79162593569 
 370           7943.71883359231 
 371           7575.67694420786 
 372           7245.43025410102 
 373           6955.638058809 
 374           6721.0508213481 
 375           6513.89991625129 
 376           6270.69391637894 
 377           6168.02753567704 
 378           6247.26660156249 
 379           6319.20594207939 
 380           6352.19740073913 
 381           6364.41866469119 
 382           6367.29227570326 
 383           6349.03786765604 
 384           6386.77134266551 
 385           6518.32298550755 
 386           6644.44611600071 
 387           6867.34743327518 
 388           7253.56916092779 
 389           7708.28972972697 
 390           8110.40979930389 
 391           8501.21336379949 
 392           8991.02948049552 
 393           9492.98040919743 
 394           9987.13580059379 
 395           10483.6411383782 
 396           10947.7468399432 
 397           11404.4083525336 
 398           11785.0511316563 
 399           11955.6641264877 
 400           12100.3155685634 
 401           12245.5403517923 
 402           12269.9137398397 
 403           12205.8185883144 
 404           12210.4170898564 
 405           12360.5431875933 
 406           12514.2743099569 
 407           12608.0827720535 
 408           12607.3442007044 
 409           12459.4232786484 
 410           12089.4506197575 
 411           11555.6593208086 
 412           10983.2224545543 
 413           10406.1121979342 
 414           9842.7175912181 
 415           9273.86475272041 
 416           8664.44861279704 
 417           8167.11733092042 
 418           7776.27037740057 
 419           7355.11688641931 
 420           7019.18199604354 
 421           6720.32087357128 
 422           6391.05305909222 
 423           6169.3939276237 
 424           6000.4790889767 
 425           5836.48830448018 
 426           5735.78484561069 
 427           5690.4799004447 
 428           5696.41642824536 
 429           5737.73768746384 
 430           5741.34382578352 
 431           5771.8712449439 
 432           5862.21579424714 
 433           5925.35230707732 
 434           6099.83557356319 
 435           6388.82605711466 
 436           6635.08463737461 
 437           6824.90382989668 
 438           6965.18247627063 
 439           7067.75272607708 
 440           7171.97827413263 
 441           7369.93041912655 
 442           7647.81971977729 
 443           7893.91229569956 
 444           8154.39712752319 
 445           8420.82283643656 
 446           8647.32970291817 
 447           8843.01037520057 
 448           8970.35667980994 
 449           9064.24043569477 
 450           9197.17666727384 
 451           9104.25261024169 
 452           8837.07436425032 
 453           8616.11792331392 
 454           8300.04792721203 
 455           7889.78954554149 
 456           7457.30439797957 
 457           7028.53918611626 
 458           6595.9940686832 
 459           6172.35567708909 
 460           5791.74949347004 
 461           5476.54998093908 
 462           5234.39819464306 
 463           5056.21177378496 
 464           4919.56127527941 
 465           4809.73059655054 
 466           4695.92703852488 
 467           4557.72563074537 
 468           4443.93106111187 
 469           4352.06078149531 
 470           4263.32856000526 
 471           4184.89708027335 
 472           4106.76653110543 
 473           4025.16317413042 
 474           3953.54905653863 
 475           3913.40901084924 
 476           3861.237574033 
 477           3824.77407509368 
 478           3946.88152060128 
 479           4099.84607228011 
 480           4136.44847582618 
 481           4055.88514471693 
 482           4050.07117854263 
 483           4076.53731311223 
 484           4099.84984821631 
 485           4263.65106718118 
 486           4467.01174232161 
 487           4617.66321973809 
 488           4729.60510409553 
 489           4876.90797254799 
 490           5035.73057253135 
 491           5188.55965665108 
 492           5376.4077751482 
 493           5522.11538169781 
 494           5663.73662382152 
 495           5869.69203840535 
 496           6015.29051311664 
 497           6143.12771046337 
 498           6283.67714824308 
 499           6364.00670594088 
 500           6430.18331210684 
 501           6511.56912554244 
 502           6602.68668889538 
 503           6688.20317260777 
 504           6679.02357484158 
 505           6563.84359586645 
 506           6433.16214455269 
 507           6301.36521605563 
 508           6134.71002505101 
 509           5934.97330025693 
 510           5783.37273597003 
 511           5665.37129195258 
 512           5622.71130205885 
 513           5738.81459522991 
 514           5946.8202172991 
 515           6049.26766812858 
 516           5991.95628975549 
 517           5963.73911107591 
 518           5927.15012737504 
 519           5838.2715001464 
 520           5717.04212778019 
 521           5600.69478536547 
 522           5461.04858695888 
 523           5336.15423476596 
 524           5305.19406729802 
 525           5206.67228779893 
 526           5033.48331540833 
 527           4857.24352500199 
 528           4664.52666747361 
 529           4527.51235591822 
 530           4428.24021913679 
 531           4295.32710837586 
 532           4213.52609966879 
 533           4203.9532581898 
 534           4253.49007249742 
 535           4340.02251755934 
 536           4351.10280419032 
 537           4248.94185979963 
 538           4089.8741805334 
 539           3957.54633177971 
 540           3832.33631412554 
 541           3696.80596271403 
 542           3571.63611536922 
 543           3459.87533665536 
 544           3329.79777190305 
 545           3171.51987232449 
 546           3025.25685723532 
 547           2908.88534597471 
 548           2797.46920344577 
 549           2686.20312005204 
 550           2643.32869606382 
 551           2624.55849649751 
 552           2608.12163363017 
 553           2596.50757721462 
 554           2489.79039770581 
 555           2373.93569139394 
 556           2325.891489711 
 557           2290.08410422002 
 558           2306.83493813904 
 559           2344.26107727669 
 560           2332.26959480174 
 561           2275.61212459653 
 562           2265.54923289959 
 563           2298.78803516933 
 564           2306.07766204304 
 565           2323.60970552343 
 566           2290.56872432829 
 567           2221.6522942431 
 568           2230.78037386013 
 569           2245.40222824842 
 570           2293.20455324124 
 571           2359.22146374774 
 572           2283.42889620818 
 573           2182.09575527681 
 574           2130.80393132582 
 575           2111.15085019962 
 576           2117.34863032419 
 577           2146.70275735915 
 578           2181.79665438181 
 579           2194.58152309225 
 580           2175.18031785502 
 581           2158.24846220085 
 582           2142.62997691062 
 583           2081.05720152644 
 584           2012.0462697265 
 585           1953.01578891843 
 586           1919.22978729096 
 587           1939.99101932783 
 588           1948.34609522862 
 589           1966.8790045086 
 590           2027.23043944794 
 591           2027.84756862088 
 592           2023.23901016212 
 593           2037.47467369341 
 594           2019.71543182716 
 595           1961.99235952704 
 596           1936.56300028582 
 597           1965.39948259476 
 598           1985.22331898852 
 599           1967.45669911674 
 600           1938.44189143186 
 601           1919.38709583797 
 602           1907.81575337311 
 603           1958.9171511102 
 604           2016.55165056194 
 605           2003.07190181588 
 606           1943.54120005735 
 607           1888.57910231831 
 608           1883.45586060467 
 609           1945.83985509972 
 610           2043.72534426747 
 611           2087.1823514278 
 612           2061.3157237261 
 613           2012.87912225474 
 614           1952.77314028521 
 615           1952.47914450744 
 616           1998.73924645062 
 617           2018.54479506798 
 618           2060.25016949425 
 619           2056.50583744417 
 620           1982.89946241463 
 621           1914.18377852755 
 622           1860.2129749818 
 623           1865.22555179241 
 624           1929.81919383243 
 625           1981.36070304101 
 626           2003.9731751822 
 627           2008.38386707435 
 628           1998.07800562896 
 629           1970.84925030676 
 630           1977.04918690785 
 631           1977.14774171447 
 632           1949.64669162981 
 633           1970.57873017094 
 634           1963.64373020447 
 635           1965.61077313949 
 636           2019.26001787319 
 637           2024.424477149 
 638           2067.42517525444 
 639           2132.88946677543 
 640           2154.87695431524 
 641           2187.63876653742 
 642           2186.98524401869 
 643           2155.34691636651 
 644           2131.84890254291 
 645           2095.82134388515 
 646           2051.79458491269 
 647           2024.96732252947 
 648           2028.08581413031 
 649           2041.3571030378 
 650           2101.1598400481 
 651           2144.1609417909 
 652           2088.71424604502 
 653           2038.67813307647 
 654           1981.1637908049 
 655           1933.7922345446 
 656           1954.04024902088 
 657           2006.0123666386 
 658           2054.84945508947 
 659           2119.24989302084 
 660           2197.19351799177 
 661           2164.86276571369 
 662           2108.13998824554 
 663           2043.63211436931 
 664           1912.13978693753 
 665           1834.35155847793 
 666           1845.65212241689 
 667           1917.09363482052 
 668           2008.15417785274 
 669           2092.33030582678 
 670           2137.39018172454 
 671           2156.46302157536 
 672           2181.51471914734 
 673           2180.02968017402 
 674           2128.76175641315 
 675           2064.65475462822 
 676           2033.42164779256 
 677           2000.49915506679 
 678           2007.80131098729 
 679           2047.58766347287 
 680           2076.2176392624 
 681           2137.61412325992 
 682           2254.04589445913 
 683           2315.78059028663 
 684           2246.90582484213 
 685           2221.05186170312 
 686           2197.08431325209 
 687           2203.83729778785 
 688           2312.5594064059 
 689           2419.07880906217 
 690           2427.35558692754 
 691           2367.13895786138 
 692           2308.59089148256 
 693           2242.30641674503 
 694           2221.69015146594 
 695           2224.49117626318 
 696           2214.56504096367 
 697           2235.97974124145 
 698           2261.38388158873 
 699           2288.51278033301 
 700           2320.48208572986 
 701           2342.04620525455 
 702           2413.68029815744 
 703           2492.87113462579 
 704           2501.25687375655 
 705           2458.22075548839 
 706           2511.36022827403 
 707           2660.31982818948 
 708           2795.71916259456 
 709           2853.19497528872 
 710           2931.49151032552 
 711           2996.36878025927 
 712           3017.01204071706 
 713           3046.15509483452 
 714           3107.00826117624 
 715           3191.10379754172 
 716           3275.68720798878 
 717           3398.47382689944 
 718           3665.79389654037 
 719           3784.95144061948 
 720           3756.44230940064 
 721           3790.81174502758 
 722           3814.35861866303 
 723           3923.51546806754 
 724           4082.79311704883 
 725           4191.40092355982 
 726           4264.32256267585 
 727           4271.27605814285 
 728           4199.74913472232 
 729           4111.90956081354 
 730           4094.9112232774 
 731           4080.90243623281 
 732           4072.26117978063 
 733           4090.01783991256 
 734           4108.53499358872 
 735           4096.34300443874 
 736           4083.25407140152 
 737           4105.39200960122 
 738           4182.05341042193 
 739           4331.12611164694 
 740           4532.34954652473 
 741           4774.48710991636 
 742           5042.97584081689 
 743           5299.54661007029 
 744           5557.26321334449 
 745           5799.72947805883 
 746           5987.37251968498 
 747           6121.00767276599 
 748           6293.45611754279 
 749           6472.35173382698 
 750           6607.48443385893 
 751           6701.41291711548 
 752           6745.75537191308 
 753           6831.12231383216 
 754           6913.96796440953 
 755           6905.19675965701 
 756           6906.1321534453 
 757           6884.20407996616 
 758           6810.64397107582 
 759           6702.26276249215 
 760           6572.85499011896 
 761           6392.14597960818 
 762           6242.19216282567 
 763           6119.90459308936 
 764           5939.75931299001 
 765           5835.07887114064 
 766           5731.69719444442 
 767           5636.20349703959 
 768           5604.84201803658 
 769           5506.67236119996 
 770           5383.30568006951 
 771           5296.62237713036 
 772           5232.35211444637 
 773           5146.88204129846 
 774           5118.1160982463 
 775           5057.2219056957 
 776           4933.32502529404 
 777           4841.01547910712 
 778           4773.27990138452 
 779           4768.64030543161 
 780           4839.99956551766 
 781           4945.00583099001 
 782           5036.06699348046 
 783           5147.43620294015 
 784           5266.69916048921 
 785           5380.13343657511 
 786           5514.50023314493 
 787           5662.41395765749 
 788           5747.3928587946 
 789           5782.21837479703 
 790           5843.74379333649 
 791           5947.35424165777 
 792           6172.13422793385 
 793           6479.58770538846 
 794           6776.28157326002 
 795           7061.80535427585 
 796           7451.0492284205 
 797           7913.40855379625 
 798           8471.02515575103 
 799           9170.80409903434 
 800           9872.83227876891 
 801           10493.5608078234 
 802           11085.5756206897 
 803           11679.9761158893 
 804           12222.397839133 
 805           12786.3234778388 
 806           13335.8897298506 
 807           13941.0848188855 
 808           14649.2639817217 
 809           15288.7211453792 
 810           16295.680367093 
 811           17595.5278587223 
 812           18793.7166666657 
 813           19679.5350459676 
 814           20144.5135565004 
 815           20681.918533396 
 816           20842.7279801812 
 817           19956.6904314565 
 818           18763.2408742866 
 819           17284.196504933 
 820           15717.6854994241 
 821           14274.5323865747 
 822           12961.3118141871 
 823           11964.6823365437 
 824           11248.1686298258 
 825           10711.6402848347 
 826           10273.4558518997 
 827           9866.31592590556 
 828           9530.83791304849 
 829           9339.10497928634 
 830           9315.69431316374 
 831           9441.29177599484 
 832           9700.81988687009 
 833           9998.34182405571 
 834           10272.9179676823 
 835           10583.8967353576 
 836           11017.4400236332 
 837           11454.6725487155 
 838           11939.7800912729 
 839           12447.9530459666 
 840           12940.8672659363 
 841           13530.5025565686 
 842           14129.8718799737 
 843           14810.3073105267 
 844           15571.1767909615 
 845           16329.0560029073 
 846           17196.1268884975 
 847           17990.9354599457 
 848           18656.1869888983 
 849           19176.1450774376 
 850           19502.3305131842 
 851           19844.1228909867 
 852           20098.8351162123 
 853           20221.9794793439 
 854           20245.3950162646 
 855           20122.399633529 
 856           19994.3312876933 
 857           19878.3712711702 
 858           19854.15832484 
 859           20020.766182155 
 860           20274.8334043898 
 861           20589.8261967268 
 862           20703.2779956532 
 863           20663.1831452235 
 864           20641.2858673584 
 865           20118.6728095391 
 866           19510.4292002892 
 867           18899.6288982372 
 868           18226.610941922 
 869           17732.1613203687 
 870           17438.5535439568 
 871           17366.6688485405 
 872           17518.6434185316 
 873           17806.8704323093 
 874           18088.5232186792 
 875           18361.7202676495 
 876           18780.0231675156 
 877           19316.59835649 
 878           19915.0380861385 
 879           20764.4717709403 
 880           21921.944708932 
 881           23051.817386645 
 882           24410.9552601054 
 883           26304.8659141812 
 884           28058.2931716673 
 885           29554.3936835407 
 886           30661.7608832421 
 887           31220.4269700224 
 888           31124.5180050995 
 889           30292.6066344203 
 890           28773.2988302278 
 891           26660.7008192641 
 892           24304.5348517003 
 893           22037.2056640082 
 894           19732.9884168017 
 895           17605.7217927796 
 896           15758.3080684434 
 897           13969.4289991782 
 898           12205.5992617402 
 899           11047.594836574 
 900           10205.0402752839 
 901           9624.4914907991 
 902           9290.40414230263 
 903           9066.81099990429 
 904           9047.59733359704 
 905           9011.97900319609 
 906           9125.35951654031 
 907           9493.7194034276 
 908           9976.56220231738 
 909           10652.5748747623 
 910           11485.4938067014 
 911           12380.155477006 
 912           13304.319211534 
 913           14170.5462331361 
 914           14711.2497516962 
 915           15012.8937078227 
 916           15122.5697298821 
 917           14932.3043539614 
 918           14480.0341796882 
 919           14071.6447245836 
 920           13418.474985562 
 921           12655.197674267 
 922           11949.9521432796 
 923           11267.6484202314 
 924           10640.8899973291 
 925           9982.27207314174 
 926           9349.79055355569 
 927           8757.84566809759 
 928           8138.4777486721 
 929           7516.96717604487 
 930           7014.86266331698 
 931           6596.87575156775 
 932           6231.69229179661 
 933           5921.75800554024 
 934           5640.27512681131 
 935           5426.48889809321 
 936           5325.86475612065 
 937           5245.91903581215 
 938           5113.95810223383 
 939           4991.63966840957 
 940           4867.71074842901 
 941           4741.44840588218 
 942           4684.34038366538 
 943           4725.36845329798 
 944           4757.91407393645 
 945           4676.23015713952 
 946           4691.57136088739 
 947           4760.23490638568 
 948           4884.59019973129 
 949           5137.16226523928 
 950           5311.33120694962 
 951           5423.25575317844 
 952           5538.68552032857 
 953           5624.28485798744 
 954           5672.45569730585 
 955           5749.39294370909 
 956           5689.18622286604 
 957           5627.81486062472 
 958           5513.51275488663 
 959           5327.00353299869 
 960           5253.89452155486 
 961           5169.09299898472 
 962           5152.74324249784 
 963           5178.64967890697 
 964           5187.07970428649 
 965           5203.49970090787 
 966           5247.74579081664 
 967           5317.54460141933 
 968           5491.1105374436 
 969           5673.94504626281 
 970           5758.91770367781 
 971           5872.66034827103 
 972           6049.80699360732 
 973           6220.91792808304 
 974           6437.61690029092 
 975           6677.63415734881 
 976           6804.31881960902 
 977           6894.75877200954 
 978           7055.47344652665 
 979           7327.28903823836 
 980           7638.67034401137 
 981           7906.61873699643 
 982           8178.46295587028 
 983           8557.59874229396 
 984           8930.53418851126 
 985           9331.28777506804 
 986           9860.14659082521 
 987           10425.6211872323 
 988           10834.7829657251 
 989           11134.3384012333 
 990           11404.3101785505 
 991           11709.4834924028 
 992           12075.4072235105 
 993           12471.5968437765 
 994           12891.9816548865 
 995           13288.0075147051 
 996           13524.5782432915 
 997           13633.4540079163 
 998           13722.988822995 
 999           13642.9752313682 
 1000          13512.2283888469 
 1001          13371.447747186 
 1002          13150.8802263868 
 1003          12917.7632599367 
 1004          12805.6691520443 
 1005          12652.9599433257 
 1006          12853.9407737201 
 1007          13178.0593963116 
 1008          13552.8100745734 
 1009          14176.826654384 
 1010          14783.8454057146 
 1011          15444.2716704413 
 1012          16173.9441434152 
 1013          16937.5938841028 
 1014          17767.6226953849 
 1015          18689.0951860027 
 1016          19569.993567318 
 1017          20324.1951501684 
 1018          20870.3611920707 
 1019          21251.6684764633 
 1020          21553.6784651982 
 1021          21683.5361436154 
 1022          21457.4586532151 
 1023          21231.7053216039 
 1024          20946.3419624212 
 1025          20598.084702345 
 1026          20225.7898485665 
 1027          19612.31640393 
 1028          18873.0107383199 
 1029          18235.4726578288 
 1030          17702.9858770861 
 1031          17105.5468990306 
 1032          16441.1378063294 
 1033          15917.6658172392 
 1034          15423.1336245595 
 1035          14858.7708037978 
 1036          14562.843267435 
 1037          14507.2135488732 
 1038          14401.4146672154 
 1039          14439.3909283232 
 1040          14558.7108243899 
 1041          14734.6943886869 
 1042          14878.2368893321 
 1043          15108.1747490773 
 1044          15520.3351629404 
 1045          15880.8961545865 
 1046          16418.2847657995 
 1047          16975.9190583524 
 1048          17596.3376727664 
 1049          18340.5084943297 
 1050          19194.3393597181 
 1051          20267.0598859642 
 1052          21345.9358920183 
 1053          22454.8314973551 
 1054          23666.3003807736 
 1055          24678.0859916047 
 1056          25382.6682214379 
 1057          26161.8093710745 
 1058          26423.3039937321 
 1059          26341.4812124683 
 1060          26021.2796550192 
 1061          25599.6550424181 
 1062          25249.2523188697 
 1063          24861.767777482 
 1064          24474.8031998856 
 1065          24083.7750992653 
 1066          23601.5921259561 
 1067          23457.308441537 
 1068          23772.7972550483 
 1069          24029.766814009 
 1070          24708.3690384709 
 1071          25426.7991976163 
 1072          26070.6877362088 
 1073          26618.2560598826 
 1074          26911.3951629216 
 1075          26778.5450175956 
 1076          26110.3103362207 
 1077          25209.5169791281 
 1078          24308.0823955362 
 1079          23264.7125379826 
 1080          22086.2620294614 
 1081          20952.205004007 
 1082          19723.7140972865 
 1083          18562.4776147096 
 1084          17399.2811775926 
 1085          16175.6912288534 
 1086          15062.5056406106 
 1087          14095.7739792391 
 1088          13098.3292814883 
 1089          12344.0702942327 
 1090          11590.6096804459 
 1091          10964.5954516519 
 1092          10423.7181344431 
 1093          9916.68766644991 
 1094          9594.22770706977 
 1095          9241.08960922339 
 1096          9015.19747965913 
 1097          8907.69489847717 
 1098          8872.93925112458 
 1099          8965.09578849035 
 1100          9184.28817359991 
 1101          9384.44606737661 
 1102          9548.9430289478 
 1103          9836.70328768582 
 1104          10300.5918005613 
 1105          10995.9435846487 
 1106          11981.0637822415 
 1107          13160.5167717862 
 1108          14345.9074210223 
 1109          15555.8672090668 
 1110          16822.8088044682 
 1111          18130.7965283035 
 1112          19376.0331551183 
 1113          20567.6803349422 
 1114          21774.746447813 
 1115          22674.1927965824 
 1116          23280.9481051789 
 1117          23362.9150641732 
 1118          22956.6167691711 
 1119          22188.1130452107 
 1120          21052.9985871135 
 1121          19729.7148947721 
 1122          18365.9255774641 
 1123          16957.9035105288 
 1124          15736.6530600786 
 1125          14583.4764487302 
 1126          13576.2768759919 
 1127          13030.4074825854 
 1128          12496.8625732431 
 1129          11933.851652012 
 1130          11342.9638079593 
 1131          10873.3866873242 
 1132          10546.7090241559 
 1133          10291.3500493247 
 1134          10079.5304985315 
 1135          9794.0430171811 
 1136          9507.67268932239 
 1137          9166.36918862763 
 1138          8778.11838432679 
 1139          8429.0181025471 
 1140          8096.72446908689 
 1141          7711.66041705885 
 1142          7370.72760246938 
 1143          7012.17266148184 
 1144          6629.99869322272 
 1145          6324.14187854078 
 1146          6050.28797213675 
 1147          5785.75622234065 
 1148          5631.52629117941 
 1149          5485.7770080171 
 1150          5347.27144016873 
 1151          5147.08863012734 
 1152          4895.20671687027 
 1153          4717.19549434975 
 1154          4669.71795659803 
 1155          4651.90078959859 
 1156          4589.88310593103 
 1157          4551.93007055692 
 1158          4505.53680639044 
 1159          4480.64349072333 
 1160          4426.37276053929 
 1161          4294.53281812352 
 1162          4204.81833760332 
 1163          4226.55948989229 
 1164          4195.21929553987 
 1165          4335.08803565095 
 1166          4463.46991334353 
 1167          4429.17473331894 
 1168          4335.81746170194 
 1169          4297.39168272315 
 1170          4337.74050499258 
 1171          4482.80766420373 
 1172          4758.74408791065 
 1173          4917.93330978377 
 1174          5026.62959761243 
 1175          5099.26343319749 
 1176          5103.38787920318 
 1177          5185.05067466168 
 1178          5340.44017589393 
 1179          5636.63667202699 
 1180          5831.07996922092 
 1181          5963.82146117222 
 1182          6069.97710211871 
 1183          6140.11806996393 
 1184          6216.22142739455 
 1185          6299.63310972344 
 1186          6421.03021676679 
 1187          6448.76324426956 
 1188          6457.38928948505 
 1189          6465.96939559879 
 1190          6453.51505498412 
 1191          6395.43131941018 
 1192          6299.23067631071 
 1193          6250.13988606456 
 1194          6182.09249423194 
 1195          6151.61725606623 
 1196          6086.00642591798 
 1197          5936.68322977163 
 1198          5801.55468994227 
 1199          5741.48308231427 
 1200          5652.79922421243 
 1201          5473.57174226169 
 1202          5297.17912097952 
 1203          5083.01473681857 
 1204          4977.90162933863 
 1205          4980.19774142031 
 1206          5031.83449792886 
 1207          5104.13962616736 
 1208          5134.37971708889 
 1209          5216.20223202711 
 1210          5376.50258508058 
 1211          5461.88113810807 
 1212          5538.03480710516 
 1213          5680.99321984946 
 1214          5840.39315695538 
 1215          6010.45238972179 
 1216          6219.30518191768 
 1217          6364.84883108127 
 1218          6503.26775699307 
 1219          6740.89807924911 
 1220          6972.95006054826 
 1221          7166.78575431145 
 1222          7253.28357026215 
 1223          7187.42326331341 
 1224          7064.77604193576 
 1225          6921.84869564565 
 1226          6861.37080045957 
 1227          6705.20566864294 
 1228          6510.35219949528 
 1229          6262.22477351241 
 1230          5977.88455879692 
 1231          5827.38448108222 
 1232          5798.99132431231 
 1233          5696.43540206466 
 1234          5621.40850155225 
 1235          5428.03901812011 
 1236          5296.38415348805 
 1237          5357.17222402519 
 1238          5467.46211523145 
 1239          5562.96824628952 
 1240          5691.52792112621 
 1241          5816.80871673627 
 1242          5968.5332527152 
 1243          6132.67202885874 
 1244          6321.28243283539 
 1245          6581.78479773429 
 1246          6891.76722484068 
 1247          7209.06683339904 
 1248          7496.47223502825 
 1249          7745.78024902837 
 1250          8023.99054052315 
 1251          8346.665936305 
 1252          8605.78134636212 
 1253          8887.55083066584 
 1254          9142.12868181198 
 1255          9385.39514913108 
 1256          9596.16945119344 
 1257          9730.18411403714 
 1258          9853.43167688613 
 1259          9972.82247776179 
 1260          10043.6894205115 
 1261          10221.1541122048 
 1262          10382.6559269503 
 1263          10578.691452181 
 1264          10779.1268678879 
 1265          10974.441637096 
 1266          11184.6144796068 
 1267          11399.7691950463 
 1268          11663.2724696194 
 1269          11878.2932351071 
 1270          12100.8697566967 
 1271          12394.1381968883 
 1272          12699.6246278373 
 1273          13020.6400261474 
 1274          13265.1942224013 
 1275          13448.8774270127 
 1276          13649.9278791842 
 1277          13771.7961204903 
 1278          13913.3567683394 
 1279          14092.0451725509 
 1280          14319.693177844 
 1281          14620.739286224 
 1282          15019.6700404166 
 1283          15414.813951045 
 1284          15878.9093380946 
 1285          16536.0930627254 
 1286          17376.08279611 
 1287          18481.6359271237 
 1288          19746.111191169 
 1289          21238.2194584839 
 1290          22895.1374337009 
 1291          24693.3479728138 
 1292          26530.8642502642 
 1293          28355.6591998645 
 1294          30166.305581581 
 1295          32032.6832274229 
 1296          34019.5711424975 
 1297          35929.635070329 
 1298          37613.5698780535 
 1299          38778.248829957 
 1300          39311.0613160284 
 1301          39269.8780321924 
 1302          38687.1398024288 
 1303          37529.8971692697 
 1304          35764.9945438274 
 1305          33585.5283056548 
 1306          31383.11002037 
 1307          29380.8194794807 
 1308          27615.660161273 
 1309          25720.0588934392 
 1310          23791.597168273 
 1311          21999.8402178731 
 1312          20519.2846434863 
 1313          19077.1218026782 
 1314          17879.2490386782 
 1315          17207.9479434968 
 1316          16638.7371703897 
 1317          16035.9770399613 
 1318          15221.726327133 
 1319          14403.977301363 
 1320          13713.6332228984 
 1321          13056.4304319998 
 1322          12416.4344131663 
 1323          11808.9286635075 
 1324          11370.8836235783 
 1325          10998.1683002732 
 1326          10549.0902696552 
 1327          10162.4115664706 
 1328          9736.36937602411 
 1329          9439.53714222316 
 1330          9157.32240505953 
 1331          8852.5540712981 
 1332          8719.94398431758 
 1333          8708.42542299734 
 1334          8795.52078492646 
 1335          8862.10973453255 
 1336          8797.72147001301 
 1337          8664.7307501654 
 1338          8553.64252699971 
 1339          8624.46516968152 
 1340          8759.24307263697 
 1341          8784.43032521648 
 1342          8809.89755194032 
 1343          8754.49827480351 
 1344          8679.39814830931 
 1345          8580.60639466272 
 1346          8489.7592607931 
 1347          8352.94369754572 
 1348          8136.14819138135 
 1349          7976.04011333924 
 1350          7848.75848729952 
 1351          7775.36982833866 
 1352          7758.80519874503 
 1353          7744.5746096365 
 1354          7712.15028473324 
 1355          7810.49527816646 
 1356          7954.46465444249 
 1357          8078.23614826843 
 1358          8149.91469550276 
 1359          8136.9028884197 
 1360          8083.12741994933 
 1361          8091.70416362241 
 1362          8272.2004659595 
 1363          8477.94406646962 
 1364          8484.36146493622 
 1365          8491.25633707116 
 1366          8369.28974685736 
 1367          8216.11365279158 
 1368          8170.56928582417 
 1369          8166.19966870995 
 1370          8140.86733318536 
 1371          8106.14675994105 
 1372          8069.51033981714 
 1373          8064.56412520887 
 1374          8103.29659452905 
 1375          8136.86186440878 
 1376          8186.0166015624 
 1377          8199.66817947375 
 1378          8221.7108343821 
 1379          8261.13903429247 
 1380          8172.92390680736 
 1381          7908.33572792222 
 1382          7719.31773383109 
 1383          7654.19133464937 
 1384          7566.88965487145 
 1385          7425.75623738306 
 1386          7349.80693329802 
 1387          7432.87059217252 
 1388          7500.13336036598 
 1389          7581.518752552 
 1390          7647.0714717593 
 1391          7611.33373844562 
 1392          7557.10453803047 
 1393          7574.38529352157 
 1394          7608.67284252403 
 1395          7638.76876701353 
 1396          7640.32627403445 
 1397          7648.01680381285 
 1398          7738.93887943727 
 1399          7818.39689072289 
 1400          7870.47639790781 
 1401          8033.48603388077 
 1402          8172.42880470479 
 1403          8374.39886399329 
 1404          8573.21727791195 
 1405          8777.23445073048 
 1406          9021.31768317088 
 1407          9217.49087620363 
 1408          9366.09843192014 
 1409          9609.01885722914 
 1410          9891.45967779393 
 1411          10138.9102625114 
 1412          10421.3856522733 
 1413          10741.1574747728 
 1414          11059.8263454144 
 1415          11373.7381520834 
 1416          11625.4865535081 
 1417          11967.7783498638 
 1418          12636.1265805345 
 1419          13320.9979795986 
 1420          14085.6631143996 
 1421          15000.381478739 
 1422          15907.4828705664 
 1423          17009.1463770576 
 1424          18422.8264037651 
 1425          20250.1022526262 
 1426          22354.1987960043 
 1427          24677.2216782101 
 1428          27038.7352734318 
 1429          29673.0608715687 
 1430          32912.3275348312 
 1431          36197.8846588665 
 1432          39506.5181061798 
 1433          42245.1944800059 
 1434          44681.8397249179 
 1435          46847.7604682024 
 1436          49060.2740428574 
 1437          50392.509134699 
 1438          51151.6469542839 
 1439          50978.0536966818 
 1440          50575.1465337428 
 1441          50030.8918166488 
 1442          49521.6159934525 
 1443          49118.5505154755 
 1444          48703.8298862871 
 1445          48294.659167341 
 1446          47755.8317601045 
 1447          47106.8051267292 
 1448          46329.9271750946 
 1449          45624.804540191 
 1450          45124.5839112969 
 1451          44607.7114243287 
 1452          44646.1917212854 
 1453          44665.1013076626 
 1454          44992.4609051642 
 1455          45308.1992041408 
 1456          45199.2915738637 
 1457          45100.924809566 
 1458          44537.9216739764 
 1459          43411.1683448545 
 1460          42108.9446588133 
 1461          40697.7524052033 
 1462          39178.1575707742 
 1463          37822.288658793 
 1464          36648.1412989205 
 1465          35393.5637590728 
 1466          34109.6369059572 
 1467          32890.8173200292 
 1468          31826.3340391808 
 1469          30817.4756560367 
 1470          29574.3693522684 
 1471          28438.0419593503 
 1472          27627.7254972513 
 1473          26964.9816026442 
 1474          26268.1017983779 
 1475          25445.9533705647 
 1476          24592.0928135036 
 1477          23598.9318586854 
 1478          22394.9381333255 
 1479          21209.3204113981 
 1480          20171.616392143 
 1481          19083.25185005 
 1482          17960.0788912643 
 1483          16870.6919362624 
 1484          15737.5843416563 
 1485          14688.8669607992 
 1486          13848.8482801821 
 1487          13084.2020433904 
 1488          12403.1983007784 
 1489          11861.0465984983 
 1490          11322.6352957321 
 1491          11038.6093120064 
 1492          10588.8891538163 
 1493          10196.4628759357 
 1494          9825.85517610566 
 1495          9517.98322252152 
 1496          9411.5752719328 
 1497          9113.74517998435 
 1498          8820.60353132286 
 1499          8515.26408691273 
 1500          8280.94189708405 
 1501          8152.75386250245 
 1502          7987.26397886664 
 1503          7738.84677065024 
 1504          7466.1779336287 
 1505          7320.03564862202 
 1506          7271.73727223823 
 1507          7145.65273539833 
 1508          6944.50416358928 
 1509          6812.6348407805 
 1510          6716.16194686244 
 1511          6682.4517423756 
 1512          6696.86396140878 
 1513          6534.12989095243 
 1514          6373.86950460728 
 1515          6163.28757165352 
 1516          5981.37605211144 
 1517          5875.6804914453 
 1518          5756.12149942436 
 1519          5598.31171429372 
 1520          5520.8665956966 
 1521          5571.67608268509 
 1522          5632.97897803851 
 1523          5564.84810388991 
 1524          5509.24801634134 
 1525          5380.44167901469 
 1526          5240.24211921959 
 1527          5131.27254464102 
 1528          5045.12433498861 
 1529          5001.58649313224 
 1530          5025.82485704797 
 1531          4971.41843995788 
 1532          4859.24200873812 
 1533          4870.97889729062 
 1534          4873.5092310647 
 1535          4802.72189381183 
 1536          4730.11234098598 
 1537          4680.29986079148 
 1538          4631.62852966821 
 1539          4573.83717101716 
 1540          4526.28351890605 
 1541          4440.19977482403 
 1542          4366.31812380777 
 1543          4356.11355413351 
 1544          4329.46339706983 
 1545          4327.49954842794 
 1546          4318.17190458123 
 1547          4229.76705014257 
 1548          4176.0472438059 
 1549          4180.52347125192 
 1550          4181.75369684031 
 1551          4200.30776443907 
 1552          4183.95472058535 
 1553          4052.13731124194 
 1554          3862.9353885632 
 1555          3877.20246395892 
 1556          3853.34766771303 
 1557          3901.13286010056 
 1558          3792.55847218149 
 1559          3741.3045969067 
 1560          3746.59065798835 
 1561          3737.58005290586 
 1562          3771.97610386831 
 1563          3781.11339889444 
 1564          3790.0121974114 
 1565          3767.41091572667 
 1566          3719.51264412986 
 1567          3690.84091991076 
 1568          3663.33244273469 
 1569          3614.67377773092 
 1570          3502.67675833887 
 1571          3489.56887719189 
 1572          3520.56703478119 
 1573          3540.27273161044 
 1574          3520.31233133166 
 1575          3505.62678829825 
 1576          3532.79363719123 
 1577          3510.67745973668 
 1578          3515.61529862958 
 1579          3518.3082427136 
 1580          3569.44351633358 
 1581          3483.87222594832 
 1582          3395.95845644319 
 1583          3348.63737149499 
 1584          3433.13016265008 
 1585          3528.59685364361 
 1586          3489.64280741119 
 1587          3448.26217758487 
 1588          3396.66523613435 
 1589          3363.64468297119 
 1590          3361.06190393142 
 1591          3349.64102936497 
 1592          3359.93354679483 
 1593          3334.76977102729 
 1594          3281.15970723098 
 1595          3230.07820477245 
 1596          3218.7716832388 
 1597          3262.80676960921 
 1598          3258.46922182527 
 1599          3190.51265772373 
 1600          3131.46860106727 
 1601          3144.30317856611 
 1602          3183.32585604666 
 1603          3242.80517386693 
 1604          3242.31451634567 
 1605          3115.65385080638 
 1606          3051.61424214664 
 1607          3035.69341536011 
 1608          3064.19723231805 
 1609          3094.3782816377 
 1610          3092.943295937 
 1611          3098.19993097613 
 1612          3086.56286594846 
 1613          3142.53174631643 
 1614          3102.3053193441 
 1615          2967.05747845799 
 1616          2909.31340958288 
 1617          2899.53821762998 
 1618          2927.77819195018 
 1619          3007.39574709994 
 1620          3027.6412498487 
 1621          3013.391148628 
 1622          3009.0438999796 
 1623          2981.45212213151 
 1624          2963.8491013741 
 1625          2967.50914558716 
 1626          2959.89325704381 
 1627          2906.28841655654 
 1628          2892.52316559247 
 1629          2887.03360098903 
 1630          2942.41320673384 
 1631          2972.8568966983 
 1632          2949.02684456923 
 1633          2905.57933188045 
 1634          2883.57586434882 
 1635          2909.16891783839 
 1636          2932.98898692162 
 1637          2915.25414547404 
 1638          2815.98662398252 
 1639          2812.34884243103 
 1640          2872.05478335688 
 1641          2903.30550378037 
 1642          2881.18101889836 
 1643          2852.45509866891 
 1644          2942.06093553525 
 1645          2482.25121181182 
 1646          2197.46806585953 
 1647          2175.22527701702 
 1648          2565.86830497748 
 1649          2852.72554832987 
 1650          2833.76002749327 
 1651          2850.22253498942 
 1652          2888.37159259312 
 1653          2879.14953082106 
 1654          2823.30850074152 
 1655          2860.20399784188 
 1656          2881.26820976781 
 1657          2946.43884609935 
 1658          3000.7515128052 
 1659          2879.33815416218 
 1660          2691.51221116907 
 1661          2672.63043240458 
 1662          2742.50896770739 
 1663          2863.71455424069 
 1664          2776.50134441092 
 1665          2709.8804897929 
 1666          2806.37196928896 
 1667          2866.92691316854 
 1668          2932.39722372735 
 1669          2833.24131031146 
 1670          2719.84329675888 
 1671          2728.52396064303 
 1672          2763.02251462429 
 1673          2813.56590591401 
 1674          2897.21377306436 
 1675          2827.88967694041 
 1676          2707.57059161664 
 1677          2600.06265382486 
 1678          2654.4854011038 
 1679          2718.07676830052 
 1680          2781.38375790162 
 1681          2832.808321861 
 1682          2817.7427912353 
 1683          2728.19678570293 
 1684          2656.62564288255 
 1685          2669.59018708602 
 1686          2782.16825332184 
 1687          2789.41047946241 
 1688          2737.78645603475 
 1689          2707.18755821177 
 1690          2752.47060355215 
 1691          2793.87655746271 
 1692          2777.99532198739 
 1693          2752.3233191451 
 1694          2705.57794850215 
 1695          2667.59475441357 
 1696          2663.32282464114 
 1697          2720.99789820402 
 1698          2730.78875099852 
 1699          2753.62690323305 
 1700          2697.66489969129 
 1701          2672.47779495158 
 1702          2696.68540599482 
 1703          2664.3612782602 
 1704          2665.39252144215 
 1705          2635.81929461708 
 1706          2621.72886411037 
 1707          2609.79696409647 
 1708          2647.59674356522 
 1709          2667.2731304 
 1710          2564.90520913986 
 1711          2504.40504486661 
 1712          2543.14313109407 
 1713          2574.70703221116 
 1714          2555.30957577917 
 1715          2555.29352243054 
 1716          2571.24896960918 
 1717          2577.42856290649 
 1718          2518.75903090836 
 1719          2539.25010617995 
 1720          2580.71494580806 
 1721          2581.06300789279 
 1722          2534.67012260273 
 1723          2420.57565704862 
 1724          2327.90884621954 
 1725          2265.91012453338 
 1726          2297.24467054429 
 1727          2314.55805337023 
 1728          2293.57459470463 
 1729          2306.04821079297 
 1730          2370.71070844896 
 1731          2376.74011606221 
 1732          2408.84763292356 
 1733          2408.00396223619 
 1734          2372.5874514632 
 1735          2398.09888846913 
 1736          2427.90212101618 
 1737          2447.842639799 
 1738          2457.09493971509 
 1739          2414.55737299219 
 1740          2344.51877559857 
 1741          2285.78058663058 
 1742          2252.77133481742 
 1743          2278.19729704353 
 1744          2376.69328706286 
 1745          2359.65848604466 
 1746          2346.00244423061 
 1747          2288.53592294319 
 1748          2261.9298300091 
 1749          2229.18558330113 
 1750          2189.52627165157 
 1751          2209.55233096297 
 1752          2232.7033770141 
 1753          2189.77925365989 
 1754          2154.8058185479 
 1755          2136.35940117996 
 1756          2209.8499414319 
 1757          2219.7043084299 
 1758          2075.89520805666 
 1759          2091.74097270679 
 1760          2120.04360216447 
 1761          2119.62237075099 
 1762          2126.86004278599 
 1763          2141.85602739854 
 1764          2196.74941610697 
 1765          2163.21231080463 
 1766          2085.0192644001 
 1767          2006.7988423393 
 1768          2065.80181662926 
 1769          2131.82875102041 
 1770          2085.58732230365 
 1771          1955.29778688148 
 1772          1980.68602679306 
 1773          2090.72265354914 
 1774          2065.31694896755 
 1775          2061.44485489213 
 1776          2018.55310290382 
 1777          2030.64710535564 
 1778          2042.75917717542 
 1779          2047.31121855106 
 1780          2031.87839114338 
 1781          2063.54876939821 
 1782          2104.74310118776 
 1783          2153.36583816927 
 1784          2088.38876653197 
 1785          2016.26749698608 
 1786          1961.73165045254 
 1787          1935.48135067734 
 1788          1969.96103676928 
 1789          2007.69909488415 
 1790          1989.92937618293 
 1791          1970.49374307471 
 1792          1915.87971766479 
 1793          1898.79923610323 
 1794          1872.27886418409 
 1795          1861.31136622929 
 1796          1926.64505234932 
 1797          1923.2378732424 
 1798          1835.34784034971 
 1799          1783.50728515884 
 1800          1820.22916286954 
 1801          1808.99105942575 
 1802          1834.16819801849 
 1803          1739.86390745509 
 1804          1667.30195727895 
 1805          1624.01865881722 
 1806          1631.87998191776 
 1807          1645.65782857855 
 1808          1665.11128430368 
 1809          1655.12384731026 
 1810          1720.26992421329 
 1811          1704.0794936231 
 1812          1711.31291954515 
 1813          1726.10383312997 
 1814          1732.95706561248 
 1815          1801.2369144165 
 1816          1838.09211100328 
 1817          1837.34406688211 
 1818          1836.01917113926 
 1819          1817.24054050486 
 1820          1841.12538703581 
 1821          1807.2681086874 
 1822          1766.80823709928 
 1823          1788.27125888515 
 1824          1830.1669174946 
 1825          1756.89527014048 
 1826          1653.403515013 
 1827          1637.43896610984 
 1828          1750.88642771586 
 1829          1861.67518589804 
 1830          1882.29474823718 
 1831          1707.92992872792 
 1832          1679.44444384459 
 1833          1729.54515719369 
 1834          1779.16517860847 
 1835          1763.09273120063 
 1836          1663.43053348101 
 1837          1717.53316685985 
 1838          1761.76062201417 
 1839          1784.6767461289 
 1840          1831.18100324291 
 1841          1905.62335807729 
 1842          1915.78063952823 
 1843          1867.1410967299 
 1844          1785.38392995582 
 1845          1677.16038834861 
 1846          1563.71588506398 
 1847          1536.40633185792 
 1848          1663.06088449915 
 1849          1834.05528399568 
 1850          1955.08176977894 
 1851          1809.63504762187 
 1852          1690.24064722093 
 1853          1624.47632207855 
 1854          1613.46070645131 
 1855          1595.92498852289 
 1856          1546.62586746494 
 1857          1547.89130360548 
 1858          1520.28288115389 
 1859          1541.9548474335 
 1860          1546.78654430775 
 1861          1581.95157725225 
 1862          1579.09835096 
 1863          1541.70361579626 
 1864          1549.2161699982 
 1865          1572.32018782638 
 1866          1572.43276610779 
 1867          1583.71266045807 
 1868          1665.68676246408 
 1869          1763.65492463295 
 1870          1737.50756371631 
 1871          1647.28195912114 
 1872          1592.27830096221 
 1873          1529.24551064238 
 1874          1605.89961957133 
 1875          1652.34330840713 
 1876          1676.38206810696 
 1877          1644.92437688544 
 1878          1599.31329551765 
 1879          1593.98007418356 
 1880          1679.24526870856 
 1881          1728.60110281373 
 1882          1727.87705052652 
 1883          1633.09707304227 
 1884          1595.23592700574 
 1885          1602.99704081395 
 1886          1576.4209078775 
 1887          1600.84408665812 
 1888          1576.87543800436 
 1889          1626.99749017672 
 1890          1659.7706001095 
 1891          1623.86260974956 
 1892          1580.36121941065 
 1893          1462.48527696683 
 1894          1460.90708520465 
 1895          1472.46187836231 
 1896          1443.40102356677 
 1897          1414.87222908551 
 1898          1508.1185232847 
 1899          1544.58053017326 
 1900          1536.83181482693 
 1901          1496.6686663863 
 1902          1472.80737833609 
 1903          1515.59000715984 
 1904          1559.47710557976 
 1905          1578.62880995819 
 1906          1614.42695462813 
 1907          1625.00161309271 
 1908          1610.22962201126 
 1909          1599.33467386868 
 1910          1601.36708802215 
 1911          1568.44901153632 
 1912          1529.71012361369 
 1913          1477.06490411432 
 1914          1428.02206485925 
 1915          1397.58458728739 
 1916          1448.57251395313 
 1917          1384.3604896699 
 1918          1333.57437409718 
 1919          1405.50618160336 
 1920          1456.10361290794 
 1921          1390.24673854955 
 1922          1364.12946709165 
 1923          1434.75354044139 
 1924          1494.13533337589 
 1925          1500.22757839886 
 1926          1441.42449857459 
 1927          1397.67932872815 
 1928          1463.91776731033 
 1929          1555.50296740576 
 1930          1478.54189424276 
 1931          1468.90831794784 
 1932          1471.46488040437 
 1933          1508.51941563724 
 1934          1496.98507793674 
 1935          1515.23247422203 
 1936          1472.36613372509 
 1937          1437.20303072195 
 1938          1385.67316490736 
 1939          1315.37285634592 
 1940          1345.41302314008 
 1941          1369.20799170379 
 1942          1428.12640458421 
 1943          1557.06641057763 
 1944          1618.29614700781 
 1945          1588.84042987637 
 1946          1395.80021230407 
 1947          1325.21834266379 
 1948          1385.0750310141 
 1949          1494.70471294681 
 1950          1555.6853843945 
 1951          1484.39395600044 
 1952          1430.69644485189 
 1953          1408.84550532261 
 1954          1371.33796388963 
 1955          1371.7843461981 
 1956          1412.41323936761 
 1957          1369.4014516547 
 1958          1272.97395016652 
 1959          1269.69948492903 
 1960          1355.20657409278 
 1961          1325.34522357929 
 1962          1265.52567619139 
 1963          1252.81472859589 
 1964          1324.34525031416 
 1965          1351.50561442136 
 1966          1371.69905291073 
 1967          1419.18653540021 
 1968          1453.03570141178 
 1969          1408.98964669482 
 1970          1332.7152187571 
 1971          1239.23587236981 
 1972          1207.85328539405 
 1973          1218.11370996636 
 1974          1272.85127720564 
 1975          1368.33007245981 
 1976          1383.77797503183 
 1977          1400.19079902861 
 1978          1411.95228618977 
 1979          1387.93758005624 
 1980          1411.09660165151 
 1981          1384.22484268488 
 1982          1376.4485817401 
 1983          1291.51154692442 
 1984          1237.80194182426 
 1985          1236.10350052307 
 1986          1247.42255227958 
 1987          1276.61152394715 
 1988          1273.01544859427 
 1989          1190.34158948635 
 1990          1192.34286207115 
 1991          1285.46454911233 
 1992          1384.94937377347 
 1993          1324.47013100725 
 1994          1297.85480354811 
 1995          1417.50233792931 
 1996          1428.69574899825 
 1997          1378.67070644934 
 1998          1336.44128422847 
 1999          1340.46442108294 
 2000          1284.01584380695 
 2001          1099.96982198438 
 2002          1027.92899054593 
 2003          1208.45448810244 
 2004          1343.20534696528 
 2005          1310.69301827417 
 2006          1222.37127983235 
 2007          1271.42878047175 
 2008          1286.64591105418 
 2009          1301.10663682846 
 2010          1292.295154055 
 2011          1315.33092682957 
 2012          1316.26241659902 
 2013          1179.94136458053 
 2014          1028.99887268983 
 2015          1038.1189673876 
 2016          1065.39017990589 
 2017          1049.49996227052 
 2018          1065.54908378258 
 2019          1064.29032421844 
 2020          1061.07069013015 
 2021          1119.19885929278 
 2022          1165.76486647373 
 2023          1155.12172917335 
 2024          1161.85488899972 
 2025          1235.43966223177 
 2026          1234.65306888966 
 2027          1149.71593428529 
 2028          1074.01778023847 
 2029          1140.73780928727 
 2030          1134.61679067882 
 2031          1136.62186574793 
 2032          1094.50525143676 
 2033          1216.69233909957 
 2034          1259.70016304377 
 2035          1214.63263022841 
 2036          1213.51608222452 
 2037          1213.64964372527 
 2038          1241.53871348946 
 2039          1269.02384007766 
 2040          1298.83609396767 
 2041          1205.05444392539 
 2042          1141.11545974721 
 2043          1074.54004031993 
 2044          1015.5738145804 
 2045          969.640655181239 
 2046          977.039483734586 
 2047          1032.89653373796 
 2048          1068.9844372571 
 2049          1029.19608875595 
 2050          1029.79516466912 
 2051          1112.88003247919 
 2052          1133.13781584505 
 2053          1086.2385466041 
 2054          1050.31918856944 
 2055          1013.60890352385 
 2056          1044.54506447523 
 2057          1025.42302914707 
 2058          988.919519166265 
 2059          926.9489907577 
 2060          972.417544541209 
 2061          1050.85614768285 
 2062          1105.96110107823 
 2063          1098.0002861333 
 2064          1051.45047061218 
 2065          1015.04768917974 
 2066          1021.98474062217 
 2067          1148.7911586515 
 2068          1093.79821483674 
 2069          1048.02438384907 
 2070          997.144696119694 
 2071          994.342635618576 
 2072          1002.19594588239 
 2073          1007.53360250746 
 2074          1081.29851200621 
 2075          1116.99834294256 
 2076          1047.30476184651 
 2077          1007.80341262449 
 2078          971.569462532888 
 2079          1003.65501385556 
 2080          1051.94629317969 
 2081          1038.05526892382 
 2082          986.019727837371 
 2083          896.3459235714 
 2084          912.545926943945 
 2085          901.215615976832 
 2086          947.06524486573 
 2087          926.556259491293 
 2088          944.11898680128 
 2089          922.073716008903 
 2090          953.423956487378 
 2091          969.254039642487 
 2092          1012.43100415791 
 2093          1002.88236558205 
 2094          938.910010466559 
 2095          993.792757403096 
 2096          1085.21447661659 
 2097          1074.33862344384 
 2098          880.275318715114 
 2099          823.642898740224 
 2100          837.671568539776 
 2101          970.860401828381 
 2102          998.726282440033 
 2103          1027.65123029261 
 2104          1058.7512773102 
 2105          1060.1449289841 
 2106          1042.32262255921 
 2107          1046.15624739064 
 2108          1110.1048979129 
 2109          1096.72346112632 
 2110          988.484078136483 
 2111          936.171240387187 
 2112          938.201213266484 
 2113          1006.69091130343 
 2114          1036.084125763 
 2115          1096.07796881167 
 2116          1087.54558752361 
 2117          1083.56995023769 
 2118          1022.86028512631 
 2119          953.420174616238 
 2120          999.685090016171 
 2121          1107.47359341407 
 2122          1177.25267636788 
 2123          993.319302733651 
 2124          799.121743549542 
 2125          848.316761099596 
 2126          965.368177047783 
 2127          885.193363078827 
 2128          800.691887662744 
 2129          871.30101846375 
 2130          904.800302081165 
 2131          951.431876688915 
 2132          991.246163124697 
 2133          958.624317869008 
 2134          882.32219687651 
 2135          846.380855067002 
 2136          885.49609279072 
 2137          1042.04295905637 
 2138          1088.28257186687 
 2139          1172.46738111456 
 2140          1211.44870750402 
 2141          1158.25000077666 
 2142          1061.01737713296 
 2143          1025.8340502242 
 2144          1034.14627445735 
 2145          999.444831406448 
 2146          1000.82838334511 
 2147          1000.21842618699 
 2148          1010.74592293784 
 2149          958.035314185942 
 2150          926.48732985716 
 2151          881.964118816003 
 2152          888.137371188396 
 2153          877.622291536946 
 2154          921.422246543082 
 2155          997.962536529575 
 2156          982.092127333552 
 2157          962.601627025464 
 2158          996.013498429456 
 2159          1041.0034153504 
 2160          986.197170272488 
 2161          956.165459952841 
 2162          935.136160356207 
 2163          892.568664765677 
 2164          905.169157554545 
 2165          897.215307335861 
 2166          946.079248729609 
 2167          938.238982897001 
 2168          968.656085923776 
 2169          1005.78982480479 
 2170          1091.32815556671 
 2171          1092.64537569681 
 2172          1059.34352801178 
 2173          1043.11714688932 
 2174          1053.37762620393 
 2175          1107.61103940859 
 2176          1175.38878048029 
 2177          1139.72975690516 
 2178          1030.26989627487 
 2179          975.634899566975 
 2180          1068.04882063002 
 2181          1122.83404826566 
 2182          1073.67495040345 
 2183          1040.48420102846 
 2184          1091.28207134739 
 2185          1087.30101285359 
 2186          1115.0945899058 
 2187          1170.0271886944 
 2188          1105.41106362712 
 2189          1083.95653926412 
 2190          1068.05850174505 
 2191          1052.27039334604 
 2192          1050.87951504116 
 2193          1135.25700516068 
 2194          1235.52353146623 
 2195          1148.67360570839 
 2196          1020.19743352035 
 2197          976.846397229856 
 2198          1041.32005506394 
 2199          1024.43178314167 
 2200          1059.77646924796 
 2201          1109.30157696488 
 2202          1140.41662958876 
 2203          1059.69148731904 
 2204          930.612585008635 
 2205          867.339732875091 
 2206          876.839423872396 
 2207          938.172861811197 
 2208          991.942118932156 
 2209          930.899505208452 
 2210          954.670411272853 
 2211          935.647683054011 
 2212          911.594820020265 
 2213          845.813759741218 
 2214          800.31420209765 
 2215          776.269855541951 
 2216          845.335052742641 
 2217          915.522200831377 
 2218          907.336542425834 
 2219          873.525860675005 
 2220          837.589009751378 
 2221          862.55458283364 
 2222          869.199920889719 
 2223          975.31312666127 
 2224          967.512821309595 
 2225          907.330092165052 
 2226          922.845679793415 
 2227          960.480813203129 
 2228          889.943804056928 
 2229          858.088866151494 
 2230          857.378207351515 
 2231          905.09874213121 
 2232          900.453110367867 
 2233          890.882570476571 
 2234          830.355032750888 
 2235          874.359662143423 
 2236          973.023669038332 
 2237          896.524575593917 
 2238          849.395929446804 
 2239          831.185900224933 
 2240          798.537575181211 
 2241          733.450392932687 
 2242          760.460572280249 
 2243          753.480519619601 
 2244          827.113415431184 
 2245          828.315784056798 
 2246          726.477946215967 
 2247          751.193181941884 
 2248          767.991431418954 
 2249          874.935073565524 
 2250          850.62962632797 
 2251          779.085767353196 
 2252          795.698122364431 
 2253          822.895873463818 
 2254          783.492271018767 
 2255          716.098407677008 
 2256          721.148786597926 
 2257          723.82313245402 
 2258          716.715608485252 
 2259          630.601716371848 
 2260          632.909718657118 
 2261          685.867799292916 
 2262          780.928940930299 
 2263          686.673421315139 
 2264          673.18899284993 
 2265          690.667023176636 
 2266          695.503134837856 
 2267          782.689476593139 
 2268          798.15326349707 
 2269          779.965565423134 
 2270          661.568995210275 
 2271          616.859804020332 
 2272          585.590543234361 
 2273          614.397932248798 
 2274          657.553182217511 
 2275          732.225487671268 
 2276          778.230477334577 
 2277          808.143187895348 
 2278          710.574261781275 
 2279          597.370374855761 
 2280          662.968037209955 
 2281          797.913178439802 
 2282          757.690121994722 
 2283          658.682677036202 
 2284          630.933111247268 
 2285          739.015917259954 
 2286          618.853098139963 
 2287          630.446986678727 
 2288          608.60452517297 
 2289          637.427587312484 
 2290          643.205366773522 
 2291          628.205280359425 
 2292          572.252648199049 
 2293          581.187576217537 
 2294          621.922287685224 
 2295          643.886783280083 
 2296          713.922171884323 
 2297          703.736934326345 
 2298          738.683529823608 
 2299          724.122860746867 
 2300          716.194321590308 
 2301          648.23670230467 
 2302          546.483734400174 
 2303          530.57342294971 
 2304          534.059831187876 
 2305          619.880543382857 
 2306          671.969881597279 
 2307          667.637464355344 
 2308          706.582213939111 
 2309          701.037453252783 
 2310          667.971725634349 
 2311          560.873318302388 
 2312          499.945595440321 
 2313          472.889614533966 
 2314          445.728935892589 
 2315          506.417047494454 
 2316          650.698348931853 
 2317          756.11736727627 
 2318          711.951999556879 
 2319          675.291144551196 
 2320          660.47204365539 
 2321          593.406787021819 
 2322          551.90629547962 
 2323          561.567462046119 
 2324          576.474922545171 
 2325          546.317263534649 
 2326          563.352257907648 
 2327          638.300179065898 
 2328          700.357264451026 
 2329          715.335314265518 
 2330          612.018098055699 
 2331          557.243209335531 
 2332          503.847614317248 
 2333          503.199422477635 
 2334          513.449044737779 
 2335          470.52308126077 
 2336          521.260386341401 
 2337          640.439068327487 
 2338          520.633777552818 
 2339          453.154281988792 
##END=
