##TITLE=methanol
##JCAMP-DX=5.00
##DATE=7/1/2010 10:39:23 AM
##DATATYPE=Raman Spectrum
##DATA CLASS=XYDATA
##ORIGIN=ENWAVE
##OWNER=ENWAVE
##NPOINTS=2090
##FIRSTX= 1
##LASTX= 2339
##MAXX= 2339
##MINX= 1
##XFACTOR=1.0000000000
##YFACTOR=1.0000000000
##FIRSTY= 313.046898490081
##DELTAX=1.000000000000
##XUNITS=1/CM
##YUNITS=ARBITRARY UNITS
##XYDATA=(X++(Y..Y))
 1             313.046898490081 
 251           313.046898490081 
 252           940.406454473597 
 253           1950.63844145475 
 254           2898.06248973454 
 255           3718.78113747234 
 256           4231.10212920783 
 257           4271.3911903755 
 258           4251.12481956664 
 259           4290.16834927215 
 260           4277.57758500437 
 261           4281.8597102131 
 262           4288.01390709113 
 263           4250.89174804701 
 264           4218.22115815496 
 265           4173.45121618202 
 266           4097.21569125676 
 267           4041.86358571061 
 268           4005.62731380104 
 269           3979.65862930276 
 270           3985.18751063666 
 271           3991.83448994217 
 272           3983.15483261478 
 273           3978.62955941933 
 274           3918.69825698526 
 275           3825.79480756465 
 276           3811.72499896674 
 277           3800.27998548606 
 278           3756.56823241779 
 279           3729.41691954424 
 280           3715.14865843281 
 281           3706.89134422799 
 282           3699.65771233359 
 283           3672.02773683694 
 284           3649.78392000644 
 285           3654.3940483851 
 286           3616.85612106796 
 287           3559.82989758583 
 288           3517.24754068433 
 289           3432.31342439942 
 290           3357.93150620252 
 291           3341.94411231493 
 292           3335.82288499355 
 293           3355.28047989262 
 294           3385.09411237987 
 295           3349.05330325387 
 296           3275.45851430031 
 297           3195.97768912623 
 298           3113.14269107729 
 299           3053.42293916282 
 300           3048.58158055771 
 301           3093.33764031112 
 302           3078.63304137254 
 303           3011.26166971981 
 304           2966.47337870543 
 305           2940.0673640448 
 306           2910.70748976906 
 307           2873.79713540746 
 308           2857.72549557205 
 309           2853.57611176649 
 310           2850.54648711076 
 311           2855.9303061391 
 312           2826.9698433952 
 313           2745.34420798514 
 314           2648.24304669276 
 315           2580.45869949232 
 316           2536.79129330599 
 317           2484.48925613502 
 318           2462.20053550505 
 319           2464.73337779889 
 320           2456.56395484579 
 321           2442.28045206175 
 322           2439.98294425414 
 323           2450.15755798644 
 324           2438.57970617165 
 325           2428.7785724447 
 326           2414.11028196795 
 327           2325.27023241835 
 328           2234.15734155515 
 329           2200.08597717435 
 330           2205.61086295296 
 331           2224.55021748362 
 332           2253.4697523667 
 333           2290.23738571312 
 334           2276.66846155448 
 335           2204.81277463482 
 336           2127.67022836814 
 337           2124.89299110133 
 338           2141.31105406144 
 339           2130.61524128021 
 340           2164.6104048169 
 341           2217.31639018791 
 342           2243.59640728882 
 343           2235.4704778928 
 344           2220.6126044878 
 345           2201.45774921409 
 346           2158.14505889107 
 347           2104.22714497175 
 348           2069.64581162093 
 349           2066.12012968411 
 350           2054.0292264955 
 351           2036.69977390281 
 352           2035.08805194941 
 353           2049.92261005338 
 354           2045.60302854614 
 355           2000.11737872251 
 356           1928.99089608813 
 357           1868.42581526057 
 358           1835.49680849504 
 359           1847.13899177061 
 360           1966.2517262661 
 361           2069.44297614297 
 362           2048.34710413552 
 363           2058.14816396215 
 364           2034.8047867166 
 365           1933.25245042804 
 366           1883.28847971488 
 367           1871.06694891165 
 368           1869.58365908582 
 369           1889.50871103759 
 370           1928.36371682748 
 371           1977.5403758576 
 372           2016.48527992202 
 373           2005.31266708024 
 374           1943.53533716502 
 375           1847.67394845745 
 376           1733.69966537275 
 377           1672.43614676685 
 378           1684.46728515625 
 379           1724.7033034005 
 380           1817.12333368218 
 381           1911.30387917988 
 382           1928.07838985863 
 383           1918.21953206123 
 384           1930.71426504805 
 385           1981.61133918448 
 386           2045.39326848827 
 387           2051.37101755431 
 388           1990.53800044388 
 389           1936.61776884043 
 390           1901.82035846563 
 391           1880.23076461211 
 392           1864.6693927017 
 393           1847.0142738544 
 394           1835.45653906948 
 395           1843.27875219764 
 396           1867.72924895724 
 397           1860.35918436493 
 398           1831.89460631761 
 399           1856.69245968619 
 400           1886.44222425077 
 401           1893.81298667561 
 402           1896.21214381332 
 403           1906.46019450925 
 404           1904.2488745409 
 405           1875.18648971726 
 406           1844.53062132756 
 407           1829.00610897051 
 408           1839.90749659562 
 409           1870.59642909276 
 410           1858.40956042112 
 411           1827.91592403135 
 412           1839.91393077691 
 413           1862.91550411409 
 414           1873.88991042386 
 415           1865.91442216384 
 416           1839.34841968768 
 417           1794.82907930051 
 418           1774.42530986211 
 419           1819.46494358253 
 420           1848.36143288998 
 421           1853.71028084512 
 422           1855.87232970646 
 423           1810.31793880864 
 424           1714.82183645639 
 425           1634.01535677285 
 426           1647.83765333063 
 427           1670.94508807494 
 428           1670.77262125172 
 429           1683.03532313544 
 430           1717.43042672796 
 431           1762.64378693231 
 432           1802.77123926367 
 433           1831.11641430606 
 434           1853.94649392371 
 435           1848.50105707624 
 436           1794.07362955314 
 437           1764.75114652545 
 438           1748.26223622081 
 439           1709.32330348674 
 440           1689.12296169983 
 441           1721.42928337595 
 442           1802.08162840929 
 443           1877.53491777625 
 444           1858.59009705987 
 445           1788.84238108224 
 446           1759.64301691943 
 447           1749.09758125712 
 448           1739.84626033211 
 449           1728.94391273758 
 450           1718.9372515655 
 451           1704.47534873959 
 452           1682.2629472486 
 453           1660.76475119264 
 454           1661.86755564307 
 455           1656.991386858 
 456           1639.14864128846 
 457           1648.52709909315 
 458           1634.10037344711 
 459           1600.70309101163 
 460           1593.06114579334 
 461           1579.72312349729 
 462           1615.57227735526 
 463           1714.64784202271 
 464           1765.53679111213 
 465           1742.56028955295 
 466           1679.31016771503 
 467           1623.75570322865 
 468           1592.52073521904 
 469           1629.32578590063 
 470           1713.33494988998 
 471           1727.66293784375 
 472           1720.59158622428 
 473           1700.63502445027 
 474           1636.89684163256 
 475           1623.45103547595 
 476           1641.40901022546 
 477           1645.09805766109 
 478           1662.68562787259 
 479           1707.29042809345 
 480           1750.44306285732 
 481           1760.46400675132 
 482           1775.98105729598 
 483           1769.62849871269 
 484           1738.07007654494 
 485           1751.26230820778 
 486           1751.12315293302 
 487           1730.40558205546 
 488           1724.24924136907 
 489           1675.93586142811 
 490           1588.295849185 
 491           1525.83005437609 
 492           1553.94778564682 
 493           1600.4348271337 
 494           1642.67314195278 
 495           1702.27864796042 
 496           1737.91020592212 
 497           1732.535373103 
 498           1705.21085456875 
 499           1684.16303659235 
 500           1636.34908909538 
 501           1600.73729598433 
 502           1614.77806901589 
 503           1602.04970973345 
 504           1628.70906498226 
 505           1688.07122021425 
 506           1679.3341662093 
 507           1699.2654305147 
 508           1699.35002082053 
 509           1628.69383959255 
 510           1613.64552880389 
 511           1599.83616154256 
 512           1580.19397810269 
 513           1623.60578401895 
 514           1687.89461577915 
 515           1694.55095126359 
 516           1640.57956638705 
 517           1620.85006543127 
 518           1614.12882476466 
 519           1599.06689644959 
 520           1580.09181920512 
 521           1557.63217956807 
 522           1548.74128665921 
 523           1557.35029046179 
 524           1573.94122688856 
 525           1622.75573754601 
 526           1664.31119726495 
 527           1656.27406705243 
 528           1629.7377471605 
 529           1595.28558690163 
 530           1572.63327913831 
 531           1572.79103034496 
 532           1551.97838024093 
 533           1583.18624825406 
 534           1682.43447068277 
 535           1723.78727235147 
 536           1675.47959595939 
 537           1611.91816799159 
 538           1589.82777482965 
 539           1539.70798113842 
 540           1510.66798858417 
 541           1507.22144060727 
 542           1476.00465200375 
 543           1467.69635858667 
 544           1491.56181923998 
 545           1527.1286858738 
 546           1556.79438076092 
 547           1561.50233186856 
 548           1565.9566117973 
 549           1588.80245711078 
 550           1585.74181510938 
 551           1593.45130633734 
 552           1630.6860610637 
 553           1663.49156619841 
 554           1663.4290054487 
 555           1660.98657648782 
 556           1666.81429397342 
 557           1638.68697911855 
 558           1594.5345078615 
 559           1553.35768820997 
 560           1530.92576384111 
 561           1544.77866599568 
 562           1551.38925645514 
 563           1551.19076441313 
 564           1568.57710176401 
 565           1545.36589909069 
 566           1493.88033825238 
 567           1462.56387311821 
 568           1477.15913070177 
 569           1504.653381331 
 570           1555.06535695817 
 571           1616.30267564554 
 572           1611.08299860264 
 573           1574.10709009608 
 574           1578.27544211083 
 575           1645.51798206029 
 576           1695.2504012882 
 577           1698.22551902622 
 578           1656.06977031167 
 579           1574.61931938026 
 580           1465.07894862409 
 581           1421.94664667329 
 582           1447.96390381097 
 583           1436.34053364406 
 584           1472.50898751185 
 585           1521.28382761922 
 586           1519.80138349343 
 587           1517.41827795509 
 588           1526.36444682334 
 589           1511.37229834644 
 590           1466.94757767082 
 591           1480.60690095571 
 592           1540.92234434282 
 593           1579.47891824656 
 594           1542.37756153306 
 595           1457.80558037366 
 596           1406.90280361939 
 597           1395.21924821696 
 598           1365.74464982562 
 599           1384.31656962484 
 600           1429.66328610558 
 601           1465.36987460972 
 602           1514.25027470937 
 603           1582.58743437018 
 604           1609.6462525417 
 605           1576.91944939645 
 606           1569.47793731689 
 607           1543.71898101207 
 608           1501.07437291947 
 609           1483.33292694897 
 610           1482.39675795116 
 611           1473.25461871883 
 612           1456.77800975897 
 613           1450.19615126892 
 614           1452.83350720593 
 615           1487.40559472201 
 616           1513.21118279998 
 617           1474.77133230464 
 618           1455.79558571701 
 619           1424.3629907119 
 620           1403.42024738896 
 621           1483.87233743471 
 622           1559.19253247534 
 623           1596.49204153691 
 624           1599.8394540301 
 625           1559.99966802359 
 626           1520.08295142817 
 627           1522.75212406651 
 628           1557.89122892991 
 629           1566.39067905024 
 630           1553.15075466536 
 631           1528.60118276286 
 632           1504.79100770887 
 633           1498.56746047049 
 634           1489.65113804078 
 635           1493.76253998726 
 636           1515.48369831238 
 637           1503.91620802595 
 638           1504.45976806859 
 639           1530.94747718614 
 640           1551.50876669716 
 641           1549.83193403718 
 642           1561.01955810589 
 643           1567.46643861591 
 644           1550.48734052043 
 645           1578.57546098913 
 646           1591.44567309407 
 647           1580.46244627335 
 648           1573.14930445306 
 649           1512.44924517717 
 650           1477.87770648121 
 651           1494.91381484493 
 652           1510.55493997113 
 653           1523.22111366602 
 654           1562.79790464088 
 655           1614.21228395554 
 656           1625.79433411405 
 657           1589.60171357802 
 658           1560.61540441384 
 659           1540.12859949778 
 660           1499.75299306276 
 661           1500.18763910894 
 662           1519.58359712318 
 663           1525.07317375032 
 664           1530.7665988409 
 665           1573.58430129107 
 666           1544.9489438354 
 667           1451.98225056738 
 668           1430.91290105397 
 669           1497.7909184333 
 670           1558.26758862153 
 671           1590.66196351967 
 672           1626.85934174598 
 673           1597.0758803926 
 674           1561.03852234373 
 675           1546.6282384809 
 676           1513.90627217165 
 677           1469.58149851836 
 678           1462.42287073635 
 679           1494.20724653534 
 680           1519.55395732154 
 681           1516.34159553058 
 682           1486.18579242518 
 683           1433.40209736372 
 684           1377.8791410101 
 685           1364.29568900918 
 686           1352.13671322363 
 687           1359.98091021108 
 688           1408.13496307831 
 689           1411.86883883372 
 690           1478.2312366296 
 691           1545.41180001509 
 692           1491.74047120623 
 693           1414.2521795833 
 694           1346.85981468507 
 695           1318.09226217293 
 696           1370.74766422517 
 697           1503.34557860025 
 698           1550.79993838861 
 699           1520.90303999489 
 700           1488.18890761153 
 701           1431.40296880381 
 702           1426.31096695752 
 703           1453.94450427315 
 704           1470.52382089467 
 705           1481.31238049373 
 706           1441.27193060349 
 707           1470.72313434862 
 708           1608.13756109974 
 709           1688.49761379906 
 710           1634.61827436905 
 711           1549.16515325775 
 712           1512.4584540543 
 713           1506.06160669625 
 714           1538.89913924841 
 715           1568.41113068935 
 716           1558.094178197 
 717           1515.23307182837 
 718           1477.32606046098 
 719           1472.4314203592 
 720           1469.04125941707 
 721           1445.19075439056 
 722           1461.28842711797 
 723           1462.75133351248 
 724           1458.53922376107 
 725           1459.20594523872 
 726           1399.3258623243 
 727           1377.93742615031 
 728           1391.93449503585 
 729           1392.48998249122 
 730           1396.34110806527 
 731           1416.43906708206 
 732           1369.262817193 
 733           1285.08765910629 
 734           1299.23641973926 
 735           1328.70898777043 
 736           1326.0949677864 
 737           1328.09343771427 
 738           1348.55846781542 
 739           1290.23749972536 
 740           1292.48684260678 
 741           1308.56187132051 
 742           1250.38736559164 
 743           1275.43679213246 
 744           1293.27877265879 
 745           1303.35086839602 
 746           1354.98607681766 
 747           1405.28443926044 
 748           1385.46596504955 
 749           1354.69125481036 
 750           1379.04359641193 
 751           1432.47501254141 
 752           1433.24533910708 
 753           1324.93949734051 
 754           1217.51183822404 
 755           1242.72466926834 
 756           1323.44082858446 
 757           1453.83562116054 
 758           1492.35196278933 
 759           1383.11383071939 
 760           1314.52953488509 
 761           1257.93823623693 
 762           1248.55512808601 
 763           1286.33452705569 
 764           1297.62198429312 
 765           1313.01520896431 
 766           1294.77772493212 
 767           1266.63570265613 
 768           1275.24434165025 
 769           1262.521217703 
 770           1269.78882088684 
 771           1305.87936565565 
 772           1344.76616005464 
 773           1375.453606906 
 774           1384.78937171977 
 775           1362.93746335466 
 776           1324.10261343044 
 777           1304.22512345342 
 778           1316.61238087905 
 779           1284.15123061196 
 780           1248.77521132165 
 781           1266.4582325669 
 782           1245.91060949391 
 783           1247.46000175025 
 784           1272.8124481534 
 785           1307.65806948225 
 786           1354.59194096219 
 787           1333.14732677959 
 788           1309.84520578706 
 789           1279.36329444649 
 790           1205.97394736063 
 791           1196.73220403481 
 792           1178.87040224633 
 793           1170.16505718476 
 794           1196.91701826802 
 795           1194.51740785905 
 796           1179.6237678579 
 797           1173.28203792566 
 798           1171.489731311 
 799           1168.57928863923 
 800           1182.24392918494 
 801           1186.08507349306 
 802           1203.07453431077 
 803           1231.9411171132 
 804           1231.31961487163 
 805           1292.29528161472 
 806           1329.63406953809 
 807           1319.49636861295 
 808           1311.66771935347 
 809           1241.72922391908 
 810           1183.31133370019 
 811           1155.40068348924 
 812           1134.23088727526 
 813           1140.51996380415 
 814           1218.36903099401 
 815           1289.94560157406 
 816           1287.78787858673 
 817           1240.09767999335 
 818           1217.57975405391 
 819           1186.55395307543 
 820           1178.10161652671 
 821           1206.05139777377 
 822           1215.95000926374 
 823           1215.89722909404 
 824           1245.37847299485 
 825           1253.9155469372 
 826           1210.58652011783 
 827           1208.36644946321 
 828           1214.71889022883 
 829           1234.23031727385 
 830           1282.29745085122 
 831           1323.91285204852 
 832           1296.35877875018 
 833           1252.17012356229 
 834           1233.52134711514 
 835           1230.66721285528 
 836           1210.31337225688 
 837           1159.0634647529 
 838           1142.38346668277 
 839           1145.6533624332 
 840           1127.4302936959 
 841           1145.69237466851 
 842           1174.86225340182 
 843           1175.03751230205 
 844           1122.28192347537 
 845           1050.98829770033 
 846           1061.91731592232 
 847           1089.18307053262 
 848           1096.75016362235 
 849           1099.08574589585 
 850           1102.01162130755 
 851           1107.85184907313 
 852           1092.88544977122 
 853           1091.01458011611 
 854           1117.27041314672 
 855           1091.75151294112 
 856           1026.650159516 
 857           1027.24036613727 
 858           1085.80896972595 
 859           1126.24286145356 
 860           1195.03389456833 
 861           1268.21767866309 
 862           1348.00780217481 
 863           1408.97406035885 
 864           1393.01947155304 
 865           1313.73272192422 
 866           1205.91000069639 
 867           1131.93861750547 
 868           1126.84188726939 
 869           1179.02366800562 
 870           1282.60248626321 
 871           1334.7663964673 
 872           1366.18289577582 
 873           1413.8558647899 
 874           1403.28167624993 
 875           1428.60917720187 
 876           1422.45652328644 
 877           1378.73126447927 
 878           1340.45219847946 
 879           1260.82819841348 
 880           1180.37849190629 
 881           1163.74607093573 
 882           1210.78360176813 
 883           1283.7378655725 
 884           1345.9593698176 
 885           1255.33142457443 
 886           1164.48055208793 
 887           1178.74381418621 
 888           1230.37174864061 
 889           1286.23619893391 
 890           1241.82350991968 
 891           1206.10881601314 
 892           1227.77501107906 
 893           1237.32767507114 
 894           1277.28796286968 
 895           1269.99261041874 
 896           1263.11036441766 
 897           1263.83143360611 
 898           1227.19476495246 
 899           1253.72226168481 
 900           1300.13343557547 
 901           1328.97068073324 
 902           1363.79699803577 
 903           1411.01734493899 
 904           1407.38026756036 
 905           1437.12567806585 
 906           1486.91021040899 
 907           1500.21583181483 
 908           1483.9320306391 
 909           1468.94841949602 
 910           1410.57432944268 
 911           1396.19195746497 
 912           1458.26927307981 
 913           1531.04229414367 
 914           1617.87495842791 
 915           1594.83181562749 
 916           1545.77643525721 
 917           1535.71103379147 
 918           1510.29980468754 
 919           1488.51139028897 
 920           1490.64473815441 
 921           1494.42066296246 
 922           1483.47198427103 
 923           1480.23715667224 
 924           1512.8208212369 
 925           1549.21236176522 
 926           1574.0908100814 
 927           1594.98775329453 
 928           1612.37032538943 
 929           1620.19628577743 
 930           1655.33999718555 
 931           1665.68405168878 
 932           1608.08251967788 
 933           1531.50881539127 
 934           1513.01542619323 
 935           1509.7679682553 
 936           1561.35672745643 
 937           1635.11950916002 
 938           1666.08494395338 
 939           1667.29259121562 
 940           1667.19071518161 
 941           1680.5385022025 
 942           1707.51451743844 
 943           1731.60755577898 
 944           1743.5137457149 
 945           1766.04188856176 
 946           1773.10200292374 
 947           1762.41499580188 
 948           1774.05738486875 
 949           1823.99734842257 
 950           1865.92133219715 
 951           1926.43914544096 
 952           1978.87504010057 
 953           1978.22477869342 
 954           1924.50012706415 
 955           1886.48906908703 
 956           1959.59763139023 
 957           2036.46081232553 
 958           2072.95757933564 
 959           2085.95149589439 
 960           2067.2276969998 
 961           2076.20503108669 
 962           2110.20052732513 
 963           2142.49348062787 
 964           2168.12733855957 
 965           2194.50477942812 
 966           2213.29705767643 
 967           2239.01552951641 
 968           2281.8169367134 
 969           2374.27021424139 
 970           2501.36272539836 
 971           2582.11877098473 
 972           2647.33554744419 
 973           2692.21892875397 
 974           2742.69599096105 
 975           2803.83350296371 
 976           2850.81958753134 
 977           2923.11290075901 
 978           3001.20641030736 
 979           3062.94803023908 
 980           3112.5698270475 
 981           3174.17961073909 
 982           3256.18942928727 
 983           3325.71440550666 
 984           3462.69948407584 
 985           3611.03222137221 
 986           3742.56040710252 
 987           3931.1105545034 
 988           4090.12893513842 
 989           4252.12928523912 
 990           4416.82775833194 
 991           4552.08097485791 
 992           4720.43295892409 
 993           5023.17197067266 
 994           5307.35209013723 
 995           5645.86143808015 
 996           6021.28236295354 
 997           6394.56307750593 
 998           6820.46068325726 
 999           7292.35763871665 
 1000          7782.15837405059 
 1001          8363.3077192106 
 1002          8953.4666955043 
 1003          9559.55484588434 
 1004          10392.0492937504 
 1005          11290.723299822 
 1006          12202.5510259273 
 1007          13083.5433000266 
 1008          14049.0562187653 
 1009          15176.5019665216 
 1010          16276.3796700209 
 1011          17439.569346094 
 1012          18555.8916601821 
 1013          19755.3364209081 
 1014          21260.7338291688 
 1015          23084.1810263066 
 1016          25144.1240445584 
 1017          27381.7967882877 
 1018          29638.966720132 
 1019          31918.8571603323 
 1020          34254.2061123856 
 1021          36596.5150120434 
 1022          39029.1684957474 
 1023          41329.1826564155 
 1024          43531.6561564003 
 1025          45811.1709527722 
 1026          47968.2457311261 
 1027          49565.9309681483 
 1028          50815.4187302117 
 1029          51824.0899652896 
 1030          52381.1949877581 
 1031          52787.6938553141 
 1032          53034.8231180612 
 1033          52414.0948572775 
 1034          51909.9014021851 
 1035          50599.2344512146 
 1036          48571.2359632323 
 1037          46254.8128377245 
 1038          43513.027232188 
 1039          40472.5664612781 
 1040          37332.7506097148 
 1041          34200.9188769224 
 1042          31024.4061604462 
 1043          27910.4920027697 
 1044          25039.5524956953 
 1045          22387.8933098459 
 1046          20075.3687775134 
 1047          17707.0019935987 
 1048          15755.6536730881 
 1049          14421.2042020101 
 1050          13160.8272095639 
 1051          11922.3316319251 
 1052          10947.7382390497 
 1053          10227.31984291 
 1054          9728.18126121864 
 1055          9301.75081536876 
 1056          8771.40499035298 
 1057          8261.35248708952 
 1058          8004.82012583425 
 1059          7789.45595753384 
 1060          7501.56272015213 
 1061          7170.51268163363 
 1062          6871.6601882096 
 1063          6656.70317347277 
 1064          6396.26106444596 
 1065          6360.03606946906 
 1066          6382.49105580947 
 1067          6405.14290805554 
 1068          6457.65563913604 
 1069          6332.46142199272 
 1070          6185.68462399769 
 1071          6012.32765409385 
 1072          5924.76035107154 
 1073          5892.86005026361 
 1074          5823.8030973595 
 1075          5787.56731522561 
 1076          5827.85383862886 
 1077          5869.75529370698 
 1078          5917.25110950486 
 1079          5876.90177534253 
 1080          5783.8049611489 
 1081          5783.63241460486 
 1082          5797.12650742918 
 1083          5872.84972993963 
 1084          5956.03922107833 
 1085          6038.77024836036 
 1086          6146.45942226363 
 1087          6274.91861430462 
 1088          6399.05467691972 
 1089          6492.49005812299 
 1090          6628.02945666049 
 1091          6699.72587129858 
 1092          6678.95275818757 
 1093          6695.13377575116 
 1094          6773.1066325777 
 1095          6806.48399532847 
 1096          7017.93475191699 
 1097          7226.0338109485 
 1098          7434.69966054531 
 1099          7608.81363360987 
 1100          7624.28897909372 
 1101          7608.28536508313 
 1102          7539.76143300323 
 1103          7591.58903109107 
 1104          7667.5315993414 
 1105          7697.37276901998 
 1106          7680.80049628521 
 1107          7575.98227675161 
 1108          7493.50510302608 
 1109          7542.44768160076 
 1110          7577.35435968797 
 1111          7562.58549263042 
 1112          7471.86311259281 
 1113          7279.2056116763 
 1114          7092.71488944383 
 1115          6939.61628533057 
 1116          6840.38806771461 
 1117          6873.72409267967 
 1118          6881.52261946019 
 1119          6723.72489037986 
 1120          6509.39234000771 
 1121          6365.90348004155 
 1122          6315.49478866317 
 1123          6214.48844068591 
 1124          6032.07195972248 
 1125          5862.3101648854 
 1126          5778.18082578424 
 1127          5722.26255770272 
 1128          5568.09095336797 
 1129          5367.77097207709 
 1130          5306.07175407664 
 1131          5270.33369948453 
 1132          5215.16018520723 
 1133          5167.95090432937 
 1134          5042.64287809511 
 1135          4911.92352653101 
 1136          4897.93990286291 
 1137          4922.12291162393 
 1138          4890.25965054421 
 1139          4819.96317415556 
 1140          4765.5619169558 
 1141          4724.81938562006 
 1142          4692.34451877647 
 1143          4728.66518442418 
 1144          4781.40732508353 
 1145          4803.26184533432 
 1146          4778.66390303123 
 1147          4704.73992262988 
 1148          4642.15210524304 
 1149          4720.98253172063 
 1150          4925.56348887979 
 1151          5006.70155480198 
 1152          4965.10783453601 
 1153          4885.67015394389 
 1154          4854.15076023754 
 1155          4919.8055121097 
 1156          4937.66450373847 
 1157          4935.86095316608 
 1158          4844.48706707619 
 1159          4775.73493363405 
 1160          4772.30055321952 
 1161          4707.81064092042 
 1162          4570.184151569 
 1163          4490.7996987441 
 1164          4370.77709281311 
 1165          4294.46901696575 
 1166          4200.83874851199 
 1167          4029.62258226293 
 1168          3833.38191421907 
 1169          3675.09240561277 
 1170          3555.43122630546 
 1171          3464.36840522295 
 1172          3411.13135663689 
 1173          3378.51762655166 
 1174          3307.73857222388 
 1175          3203.35733545789 
 1176          3114.09169477003 
 1177          3063.44853744742 
 1178          3052.67169155501 
 1179          2998.49621377931 
 1180          2970.4470843809 
 1181          2947.92367569692 
 1182          2892.77362835062 
 1183          2872.98661661041 
 1184          2877.12606458615 
 1185          2795.60625517115 
 1186          2758.89034732311 
 1187          2660.10809269016 
 1188          2613.09562682573 
 1189          2590.17145697549 
 1190          2607.99850745169 
 1191          2637.654962701 
 1192          2600.07676752992 
 1193          2600.41938915448 
 1194          2437.60332217358 
 1195          2406.86230084807 
 1196          2393.50317880927 
 1197          2409.84499782331 
 1198          2401.93276726524 
 1199          2296.16732580143 
 1200          2280.14047917705 
 1201          2329.3070131888 
 1202          2313.85352942167 
 1203          2275.77996675446 
 1204          2151.39815135823 
 1205          2067.65118456803 
 1206          2069.99743675528 
 1207          2076.28000647239 
 1208          2142.34572286207 
 1209          2229.10993019159 
 1210          2245.86580672463 
 1211          2249.77766128221 
 1212          2214.00606953294 
 1213          2137.48218483671 
 1214          2116.32075476523 
 1215          2147.65221686092 
 1216          2142.76975819253 
 1217          2171.26548380019 
 1218          2194.31135868113 
 1219          2183.07420624849 
 1220          2162.01369771138 
 1221          2131.39689204795 
 1222          2104.76257953102 
 1223          2092.70497649773 
 1224          2078.92570680139 
 1225          2083.94208075952 
 1226          2090.88905849249 
 1227          2059.46611976527 
 1228          2048.87271809511 
 1229          1965.07066394721 
 1230          1877.66745605431 
 1231          1848.16045221918 
 1232          1822.13253186299 
 1233          1892.21071647251 
 1234          1940.66549514816 
 1235          1999.87326951334 
 1236          1951.70732875482 
 1237          1910.50475596802 
 1238          1917.9844104308 
 1239          1915.77683610488 
 1240          1910.18729851881 
 1241          1922.33251430058 
 1242          1966.45254771247 
 1243          1997.5358497809 
 1244          1985.19082605677 
 1245          2003.9221539565 
 1246          2005.61550280504 
 1247          1977.72912738145 
 1248          1957.95307665627 
 1249          1970.23748711589 
 1250          2022.25940949293 
 1251          1991.74937976809 
 1252          1950.45598975823 
 1253          1941.54865954557 
 1254          1947.49594209133 
 1255          2035.97460131577 
 1256          2079.93781025255 
 1257          2021.3410957762 
 1258          2019.62682290456 
 1259          2049.97870836706 
 1260          2093.34494907705 
 1261          2052.90445452163 
 1262          2012.49812250268 
 1263          1970.88930615924 
 1264          1898.68568655674 
 1265          1903.07914978979 
 1266          1974.26875722236 
 1267          2008.57111813302 
 1268          2056.77725524058 
 1269          2039.71070480818 
 1270          2068.14571593642 
 1271          2128.55085997305 
 1272          2203.1573486574 
 1273          2203.32659932973 
 1274          2091.24384268822 
 1275          1972.46482700372 
 1276          1971.90988527441 
 1277          2073.90515350588 
 1278          2145.30526095678 
 1279          2145.9928685973 
 1280          2064.64572202489 
 1281          2089.96601734912 
 1282          2172.78433412583 
 1283          2270.10762053571 
 1284          2320.42766125452 
 1285          2299.71884097311 
 1286          2250.55986447347 
 1287          2128.81614310911 
 1288          2146.40150962353 
 1289          2133.20819807464 
 1290          2213.31014631033 
 1291          2315.25094041559 
 1292          2422.90950156541 
 1293          2462.68833964987 
 1294          2428.89566963567 
 1295          2403.13923645175 
 1296          2355.60885820639 
 1297          2320.02016904222 
 1298          2272.967347345 
 1299          2304.67630715029 
 1300          2391.63819486735 
 1301          2472.41293101871 
 1302          2518.54051458218 
 1303          2506.54069818869 
 1304          2505.61519165258 
 1305          2545.94166991178 
 1306          2540.19886264283 
 1307          2567.43360201063 
 1308          2684.33164018345 
 1309          2767.01620189857 
 1310          2808.8218527849 
 1311          2797.66107279582 
 1312          2765.53548415587 
 1313          2695.99971582099 
 1314          2571.05315484151 
 1315          2454.63118692447 
 1316          2470.9448265428 
 1317          2640.6967208816 
 1318          2744.78092301631 
 1319          2841.40461330483 
 1320          2822.00110928986 
 1321          2748.42532321115 
 1322          2778.38093844415 
 1323          2821.00172304326 
 1324          2839.58712258562 
 1325          2901.11333704848 
 1326          2913.95034970114 
 1327          2837.61974285033 
 1328          2859.99586275787 
 1329          2985.91591645446 
 1330          3043.75713399407 
 1331          3107.09268844423 
 1332          3123.30927785844 
 1333          3130.51382930755 
 1334          3177.57624163053 
 1335          3247.13996339781 
 1336          3290.1743542765 
 1337          3271.69975799852 
 1338          3252.87209288148 
 1339          3310.39492983499 
 1340          3391.55226349269 
 1341          3490.81848127728 
 1342          3508.18621481393 
 1343          3517.90900513744 
 1344          3498.77610693321 
 1345          3496.85093242999 
 1346          3460.47074244676 
 1347          3416.55282825267 
 1348          3469.86576071303 
 1349          3527.32706188845 
 1350          3560.12111053418 
 1351          3630.61003583365 
 1352          3672.24721536009 
 1353          3657.44085051406 
 1354          3627.66260323024 
 1355          3676.62758530565 
 1356          3725.65375368632 
 1357          3812.50321751585 
 1358          3919.11985227247 
 1359          3940.59207976534 
 1360          3901.39748903071 
 1361          3890.82944806767 
 1362          3962.54121534446 
 1363          4090.01673766873 
 1364          4255.41177292024 
 1365          4351.46150704347 
 1366          4287.715337021 
 1367          4284.82018854487 
 1368          4273.15064912299 
 1369          4345.0376283272 
 1370          4440.14280481029 
 1371          4457.71943447871 
 1372          4474.21794463306 
 1373          4507.9034357532 
 1374          4573.50890385326 
 1375          4612.43786950232 
 1376          4654.46582031236 
 1377          4690.43477885425 
 1378          4694.11066023346 
 1379          4811.35508015699 
 1380          4975.70148302124 
 1381          5010.46656044923 
 1382          5011.37070815777 
 1383          5043.35565100822 
 1384          5056.55172680026 
 1385          5090.41505001857 
 1386          5146.2628908405 
 1387          5182.57436365333 
 1388          5252.70986962391 
 1389          5318.59228971156 
 1390          5367.34801414089 
 1391          5411.27618392133 
 1392          5528.57330849369 
 1393          5612.64978125571 
 1394          5775.21783137859 
 1395          5847.022160958 
 1396          5790.19877229558 
 1397          5748.33123044737 
 1398          5798.55716827931 
 1399          5867.19028070209 
 1400          5888.72128958475 
 1401          5976.82855006222 
 1402          6021.8846508536 
 1403          6133.46034695028 
 1404          6241.33962261103 
 1405          6351.84814092589 
 1406          6437.85351022069 
 1407          6570.92322322439 
 1408          6580.04925359719 
 1409          6510.54855156734 
 1410          6450.24017225983 
 1411          6514.08370981004 
 1412          6704.22445087301 
 1413          6913.38585949987 
 1414          7023.34805055543 
 1415          6985.43503127191 
 1416          6982.81882519674 
 1417          6959.26448015703 
 1418          7109.5083382829 
 1419          7205.40475341383 
 1420          7326.95131158547 
 1421          7395.22794127052 
 1422          7432.94237677799 
 1423          7453.60173876591 
 1424          7564.54085649848 
 1425          7688.49826202323 
 1426          7855.65309328711 
 1427          8031.32154070085 
 1428          8166.88025413357 
 1429          8342.76667210641 
 1430          8553.54261700152 
 1431          8803.9152625434 
 1432          9006.21806286147 
 1433          9233.54596971293 
 1434          9553.78593867433 
 1435          9947.17674697506 
 1436          10422.462256248 
 1437          10854.1984571428 
 1438          11495.2659640058 
 1439          12157.4529994439 
 1440          12996.572763732 
 1441          13907.6820875334 
 1442          14869.1730371442 
 1443          15869.5385537433 
 1444          16852.6122215662 
 1445          17941.9907712577 
 1446          19096.2869742287 
 1447          19997.1192846844 
 1448          20622.8983261517 
 1449          21214.208243775 
 1450          21524.5079084961 
 1451          21838.4830961011 
 1452          21692.4307810395 
 1453          21284.6182838734 
 1454          21000.0794076115 
 1455          20538.5919981766 
 1456          20193.8614382938 
 1457          20126.5142038912 
 1458          20203.4600425322 
 1459          20348.3434426101 
 1460          20119.2356784258 
 1461          19750.7930283105 
 1462          19599.5076827583 
 1463          19520.4075015192 
 1464          19420.2490078688 
 1465          19217.5503217342 
 1466          19039.9883887515 
 1467          19003.4957832302 
 1468          18958.1606358762 
 1469          18880.2745302239 
 1470          18539.6070168609 
 1471          18212.6638868535 
 1472          17905.7487628069 
 1473          17835.8526370365 
 1474          17869.7060865836 
 1475          17594.6351971159 
 1476          17228.2854231047 
 1477          16904.7254571595 
 1478          16596.7585274495 
 1479          16226.9968256246 
 1480          15726.5878247429 
 1481          15309.3304627249 
 1482          15046.8942509363 
 1483          14732.6578712715 
 1484          14374.6145560446 
 1485          14057.0479577705 
 1486          13721.218430212 
 1487          13366.9874059236 
 1488          13023.4215878553 
 1489          12656.0032501883 
 1490          12279.3396673804 
 1491          12072.0486302795 
 1492          11825.8702168202 
 1493          11527.3352038819 
 1494          11171.4405733456 
 1495          10867.8313156906 
 1496          10733.4456898622 
 1497          10528.5525952444 
 1498          10341.6613249785 
 1499          10173.2183493023 
 1500          9938.69312073316 
 1501          9724.67796060455 
 1502          9575.31892069501 
 1503          9493.630691109 
 1504          9391.97925968572 
 1505          9150.99022943504 
 1506          8833.68390898058 
 1507          8640.80794686079 
 1508          8543.03067045468 
 1509          8526.6252564933 
 1510          8546.66329841629 
 1511          8426.69625186836 
 1512          8312.15244831419 
 1513          8258.44629644582 
 1514          8214.80842625254 
 1515          8143.98437609422 
 1516          7917.21295232944 
 1517          7715.44482788464 
 1518          7562.70995740672 
 1519          7407.18186473575 
 1520          7369.89867493149 
 1521          7301.33855916684 
 1522          7232.97076749856 
 1523          7163.16864517811 
 1524          7128.15787721753 
 1525          7053.13280668414 
 1526          6973.51146995719 
 1527          6868.91458466343 
 1528          6881.27874450697 
 1529          6774.83156163181 
 1530          6649.43082824305 
 1531          6608.67913148144 
 1532          6554.794467993 
 1533          6558.49815910894 
 1534          6564.44222356636 
 1535          6602.77963392785 
 1536          6642.08448015712 
 1537          6615.83919636251 
 1538          6539.18140760271 
 1539          6434.13269639431 
 1540          6347.51748934841 
 1541          6274.92000316974 
 1542          6245.60551326189 
 1543          6219.509151046 
 1544          6158.30011848505 
 1545          6148.00760558241 
 1546          6144.51436007132 
 1547          6138.18312285147 
 1548          6155.59151496521 
 1549          6184.73342767965 
 1550          6103.28543214646 
 1551          5991.6146349996 
 1552          5915.67977205656 
 1553          5823.27743905866 
 1554          5764.38560039881 
 1555          5645.43157599768 
 1556          5599.09169670252 
 1557          5524.49526899891 
 1558          5489.88936474567 
 1559          5430.94170144627 
 1560          5417.46795184401 
 1561          5403.05388591265 
 1562          5427.1508008659 
 1563          5409.2342909951 
 1564          5377.33995288389 
 1565          5218.04231773885 
 1566          5170.6708103733 
 1567          5128.28408382373 
 1568          5107.11264759821 
 1569          5090.56465946752 
 1570          5083.3343670445 
 1571          5095.02533472706 
 1572          5006.21900147532 
 1573          4917.85105821022 
 1574          4832.28254760659 
 1575          4804.84300070584 
 1576          4765.22828214897 
 1577          4699.1903144317 
 1578          4707.55623427122 
 1579          4700.99222826019 
 1580          4675.27483410768 
 1581          4674.15242129797 
 1582          4571.83164853325 
 1583          4416.48944746904 
 1584          4335.92522617563 
 1585          4252.23300370149 
 1586          4296.85245864095 
 1587          4329.29729425672 
 1588          4271.13840286514 
 1589          4236.87160173039 
 1590          4214.29008787401 
 1591          4170.79427691526 
 1592          4114.89043558484 
 1593          4062.62378477375 
 1594          3987.59661583407 
 1595          3891.96176557807 
 1596          3823.11792677668 
 1597          3787.7795358217 
 1598          3790.07497204111 
 1599          3738.94033267167 
 1600          3647.55522094316 
 1601          3653.59687382657 
 1602          3686.19948820405 
 1603          3654.815669055 
 1604          3551.11257930582 
 1605          3454.97465843757 
 1606          3447.25680319356 
 1607          3480.8290901744 
 1608          3501.81709929173 
 1609          3464.41022778872 
 1610          3318.63002100763 
 1611          3236.66250894497 
 1612          3246.06558273585 
 1613          3188.66514826952 
 1614          3182.54062123229 
 1615          3190.23338525264 
 1616          3208.39101038023 
 1617          3211.68009540396 
 1618          3158.27579375178 
 1619          3120.68246811573 
 1620          3043.75289698024 
 1621          2998.32352178047 
 1622          3001.65841326373 
 1623          2983.35341765041 
 1624          2920.72390544857 
 1625          2835.66763098932 
 1626          2821.01427192822 
 1627          2835.49265044111 
 1628          2779.2379621976 
 1629          2676.07782092248 
 1630          2615.82819459743 
 1631          2605.51425651081 
 1632          2600.61721596339 
 1633          2655.01715692565 
 1634          2650.62492181673 
 1635          2617.33430277636 
 1636          2638.32147224158 
 1637          2651.09969138031 
 1638          2613.82021643992 
 1639          2550.74668329219 
 1640          2540.88466029615 
 1641          2560.17240591461 
 1642          2562.50881095969 
 1643          2582.07146759558 
 1644          2522.72362479046 
 1645          2463.62271521877 
 1646          2424.59585601727 
 1647          2438.33400192306 
 1648          2433.27186855705 
 1649          2399.27722564486 
 1650          2414.76934094005 
 1651          2395.28028744595 
 1652          2404.50775158909 
 1653          2378.44024050173 
 1654          2377.10591183126 
 1655          2419.04395783743 
 1656          2362.69032697202 
 1657          2295.63159878952 
 1658          2257.43280122438 
 1659          2232.41580789068 
 1660          2181.89152968941 
 1661          2185.84083275068 
 1662          2143.69493022928 
 1663          2083.15535899224 
 1664          2046.40557526404 
 1665          2007.47952815001 
 1666          2061.38692787004 
 1667          2129.86161422663 
 1668          2110.18669357285 
 1669          2161.31365572976 
 1670          2178.17461460867 
 1671          2134.77364809852 
 1672          2040.98854240814 
 1673          1919.37234441395 
 1674          2048.02616306048 
 1675          2062.27612094853 
 1676          2031.52054837721 
 1677          1911.43456441803 
 1678          1867.86860650226 
 1679          1862.59294901873 
 1680          1885.81966988286 
 1681          1929.05739134163 
 1682          1959.88028303242 
 1683          2020.20207557573 
 1684          2048.09336381359 
 1685          1990.40546167033 
 1686          1980.16250507196 
 1687          1993.09473764567 
 1688          1982.51777152527 
 1689          1832.23814463561 
 1690          1720.25195219349 
 1691          1739.73148507912 
 1692          1720.62048301728 
 1693          1716.88147497064 
 1694          1739.51443323102 
 1695          1850.67481565357 
 1696          1904.64084909538 
 1697          1830.09430187658 
 1698          1671.91009130301 
 1699          1612.50955865412 
 1700          1682.06161835886 
 1701          1753.00322826854 
 1702          1781.23497781011 
 1703          1806.05027667996 
 1704          1826.23944414325 
 1705          1781.22887060023 
 1706          1746.99987967007 
 1707          1708.88180722699 
 1708          1718.17434958637 
 1709          1604.16885546526 
 1710          1609.64299951478 
 1711          1650.98933497423 
 1712          1722.07178285609 
 1713          1646.39674585313 
 1714          1579.87851359749 
 1715          1559.11115833789 
 1716          1549.62697891572 
 1717          1600.69612515035 
 1718          1623.70779897725 
 1719          1592.2056157315 
 1720          1590.36080804032 
 1721          1579.04092230008 
 1722          1608.38513408385 
 1723          1633.66397435922 
 1724          1622.71796451694 
 1725          1602.27613867802 
 1726          1684.26470609141 
 1727          1700.71808919518 
 1728          1636.38788610452 
 1729          1576.05271488283 
 1730          1586.67562256655 
 1731          1657.40407522401 
 1732          1660.06996164116 
 1733          1624.19452217895 
 1734          1539.54274089995 
 1735          1408.68697308231 
 1736          1386.51887587283 
 1737          1449.59383559409 
 1738          1543.14458623995 
 1739          1514.47646540754 
 1740          1466.88018642212 
 1741          1448.00306788062 
 1742          1383.72170625634 
 1743          1345.17784614507 
 1744          1378.8165358659 
 1745          1481.04996678214 
 1746          1496.28060007454 
 1747          1435.35282757976 
 1748          1410.34809111034 
 1749          1393.6255589552 
 1750          1411.75560367918 
 1751          1451.85652422684 
 1752          1564.97579411508 
 1753          1557.66307507943 
 1754          1486.26567088806 
 1755          1441.00832190946 
 1756          1449.01056327664 
 1757          1469.36031407632 
 1758          1428.51950700617 
 1759          1481.69404165787 
 1760          1504.55179428922 
 1761          1462.1961643544 
 1762          1420.31062298252 
 1763          1408.81699272188 
 1764          1430.17986146829 
 1765          1433.71602295828 
 1766          1415.35098117973 
 1767          1455.42480303229 
 1768          1406.10602079606 
 1769          1385.64723030936 
 1770          1403.13695336062 
 1771          1409.39522182335 
 1772          1366.34831964457 
 1773          1249.08979353168 
 1774          1246.0709839374 
 1775          1274.11154112026 
 1776          1324.07618784382 
 1777          1399.16909040112 
 1778          1355.57810612413 
 1779          1284.01301024934 
 1780          1232.30633462525 
 1781          1277.26205681518 
 1782          1336.47844113959 
 1783          1363.77390052943 
 1784          1319.59046492023 
 1785          1303.02610313237 
 1786          1314.52002835143 
 1787          1318.85591168681 
 1788          1287.2353776265 
 1789          1254.46738907208 
 1790          1245.72982158226 
 1791          1261.1348021262 
 1792          1269.83893791699 
 1793          1143.34548077849 
 1794          1161.09625610712 
 1795          1225.23823511845 
 1796          1279.57081500975 
 1797          1280.16052460333 
 1798          1227.44226679291 
 1799          1220.18341101545 
 1800          1261.29863441204 
 1801          1271.99923593352 
 1802          1274.43653886863 
 1803          1252.53658694771 
 1804          1209.06446442577 
 1805          1153.50050918572 
 1806          1205.49237579139 
 1807          1227.71919521014 
 1808          1316.80660568843 
 1809          1347.1911830151 
 1810          1312.61712327076 
 1811          1301.26959619493 
 1812          1346.47374844264 
 1813          1315.9673399279 
 1814          1188.31159961047 
 1815          1110.05056360532 
 1816          1125.65304939079 
 1817          1193.88787067696 
 1818          1193.53538214759 
 1819          1168.10517654354 
 1820          1139.89840158646 
 1821          1058.26900861384 
 1822          1051.62216148499 
 1823          1060.43939350853 
 1824          1125.70280935587 
 1825          1140.937809623 
 1826          1161.53349152233 
 1827          1196.29273969755 
 1828          1210.43951813204 
 1829          1169.86617543525 
 1830          1105.96117207368 
 1831          1115.43361933911 
 1832          1137.05701792847 
 1833          1214.98820547241 
 1834          1248.35809540104 
 1835          1284.5302590815 
 1836          1204.45163444512 
 1837          1158.38809041138 
 1838          1155.92107130984 
 1839          1238.17687808285 
 1840          1264.88976508404 
 1841          1196.75991909626 
 1842          1061.98154723562 
 1843          1089.49459962854 
 1844          1199.85776527009 
 1845          1308.64007279775 
 1846          1217.53930702417 
 1847          1163.65808432367 
 1848          1125.92388031671 
 1849          1106.77827137329 
 1850          1055.15105533906 
 1851          1075.60527945303 
 1852          1068.73839653922 
 1853          1060.24933428644 
 1854          1052.47473687334 
 1855          1075.35150788334 
 1856          1134.02978540198 
 1857          1155.59846327696 
 1858          1194.1712591628 
 1859          1167.49672297358 
 1860          1149.36748316637 
 1861          1102.45406352189 
 1862          1023.90717404266 
 1863          1034.60387067139 
 1864          1065.22525228952 
 1865          1074.70843239134 
 1866          1002.7946324993 
 1867          945.784525774063 
 1868          1075.36809459899 
 1869          1206.58468937028 
 1870          1284.12685088139 
 1871          1274.47036032309 
 1872          1192.63594153876 
 1873          1073.77406199063 
 1874          1009.79140667363 
 1875          999.392005388854 
 1876          973.015447863485 
 1877          1003.16807785514 
 1878          1083.3281460728 
 1879          1112.81882964693 
 1880          1036.83403667318 
 1881          1007.63290805487 
 1882          976.005407379615 
 1883          945.69652267276 
 1884          933.953353074871 
 1885          984.929144285404 
 1886          988.525472953728 
 1887          965.397234545425 
 1888          963.697776216865 
 1889          920.42083551111 
 1890          954.255478297918 
 1891          972.421344364778 
 1892          1028.39539615303 
 1893          970.395438640559 
 1894          1016.33559440861 
 1895          1056.07659590026 
 1896          1085.86628594292 
 1897          930.612976746035 
 1898          949.831042705702 
 1899          968.537507406774 
 1900          1020.24275316748 
 1901          1066.30507797405 
 1902          1079.19366647752 
 1903          1079.6840452032 
 1904          1017.97882776414 
 1905          955.23010017869 
 1906          950.591091700211 
 1907          954.361070245828 
 1908          1029.79016917513 
 1909          1086.43752798239 
 1910          1066.60358717111 
 1911          1054.98388060664 
 1912          1048.16878057151 
 1913          1076.350953906 
 1914          1048.87254203961 
 1915          954.879677824781 
 1916          898.532584237879 
 1917          977.884614890147 
 1918          1062.5491617964 
 1919          1000.61068781068 
 1920          952.73572752442 
 1921          1023.65453270622 
 1922          1127.82119597512 
 1923          1079.92602124868 
 1924          942.167295047253 
 1925          925.235449680227 
 1926          908.286065446752 
 1927          918.302046228456 
 1928          892.452058715689 
 1929          975.99656080723 
 1930          987.970435549502 
 1931          961.180838273396 
 1932          903.315156207266 
 1933          854.947955315325 
 1934          878.05028002277 
 1935          928.018738213368 
 1936          1009.67394360577 
 1937          952.09182928053 
 1938          959.119460051373 
 1939          1010.02504970079 
 1940          1116.295933473 
 1941          1131.26786828084 
 1942          1035.22823754579 
 1943          939.904524128267 
 1944          915.20400208887 
 1945          879.452370155561 
 1946          915.799177549689 
 1947          878.271504787817 
 1948          791.997648149787 
 1949          900.100447645036 
 1950          965.749538949074 
 1951          956.717756083399 
 1952          896.664602334698 
 1953          921.821679557268 
 1954          941.581083255412 
 1955          875.793184796799 
 1956          807.629622798668 
 1957          807.845122019229 
 1958          877.979822943454 
 1959          917.264789783439 
 1960          918.834563990647 
 1961          930.640311921179 
 1962          903.969322106871 
 1963          887.142865984917 
 1964          886.204190357159 
 1965          928.929452921666 
 1966          936.420278614428 
 1967          936.058951316463 
 1968          963.274961681017 
 1969          1022.57966978287 
 1970          1012.2651350794 
 1971          751.720075462524 
 1972          790.459239875311 
 1973          837.309833083306 
 1974          861.697084125656 
 1975          897.918142400213 
 1976          892.53464787623 
 1977          904.338074279616 
 1978          819.89036172618 
 1979          751.822076834488 
 1980          826.699895784034 
 1981          907.643314022749 
 1982          902.709870417592 
 1983          880.422721056895 
 1984          864.293668860238 
 1985          899.912500129744 
 1986          947.220772931443 
 1987          907.382690253316 
 1988          878.236803119032 
 1989          861.789685457847 
 1990          863.893488456475 
 1991          913.840476667929 
 1992          896.157305688311 
 1993          866.114963215565 
 1994          827.904659900659 
 1995          768.479051427305 
 1996          749.31607644756 
 1997          746.09440170015 
 1998          790.405879339408 
 1999          803.352606603381 
 2000          809.9340868573 
 2001          811.487172953063 
 2002          808.360063337567 
 2003          875.849311286371 
 2004          896.652876023642 
 2005          904.73777029121 
 2006          879.586332565497 
 2007          856.601703381635 
 2008          826.604820931885 
 2009          776.196340962068 
 2010          778.305278332563 
 2011          793.995693271203 
 2012          860.277775161691 
 2013          899.962656963343 
 2014          817.412481913297 
 2015          738.036876090685 
 2016          683.191775313643 
 2017          647.447544085858 
 2018          701.244564802357 
 2019          740.164288180995 
 2020          808.4774886062 
 2021          847.854137111572 
 2022          817.574874166684 
 2023          818.344908704673 
 2024          839.378215971869 
 2025          838.200102960676 
 2026          844.976200208078 
 2027          837.488301392689 
 2028          850.146898597772 
 2029          811.995157549262 
 2030          786.03887947785 
 2031          787.231076510435 
 2032          715.642756066148 
 2033          691.217873443503 
 2034          732.820246197258 
 2035          880.699074169774 
 2036          948.103566777767 
 2037          898.580309510633 
 2038          861.340661273207 
 2039          798.282748995494 
 2040          738.467219498412 
 2041          740.823296614864 
 2042          789.983495492933 
 2043          779.88173457371 
 2044          826.933733726459 
 2045          838.364201946098 
 2046          858.016029254697 
 2047          804.880321509464 
 2048          770.133004869794 
 2049          738.475000254949 
 2050          765.398728308217 
 2051          793.875296326456 
 2052          841.195290749012 
 2053          883.329031436494 
 2054          847.799684747657 
 2055          828.723741203877 
 2056          830.910821165277 
 2057          759.269097238837 
 2058          635.994718279698 
 2059          610.794890621009 
 2060          621.832939548508 
 2061          679.195596361447 
 2062          723.998669257096 
 2063          787.046297887692 
 2064          805.413194155965 
 2065          801.743746126105 
 2066          712.631105953132 
 2067          731.433066095091 
 2068          787.531749756425 
 2069          793.551976051744 
 2070          762.39581713549 
 2071          691.018411522145 
 2072          624.82165247516 
 2073          674.309015120949 
 2074          674.136510067838 
 2075          672.318520143994 
 2076          620.930317890849 
 2077          577.879791137972 
 2078          589.533922854685 
 2079          760.073740047265 
 2080          843.517524532728 
 2081          779.553444602597 
 2082          752.354885132153 
 2083          752.355441333384 
 2084          706.380169270309 
 2085          706.05727702973 
 2086          758.406268164892 
 2087          704.161957049772 
 2088          589.983493919146 
 2089          587.711847966491 
 2090          627.700161140627 
 2091          644.678988298838 
 2092          652.750241556575 
 2093          638.897215350064 
 2094          597.428172075388 
 2095          583.083810720694 
 2096          602.931381464497 
 2097          636.704569472062 
 2098          698.549945685185 
 2099          695.646661732409 
 2100          609.521840341002 
 2101          504.936821593136 
 2102          529.863513639287 
 2103          531.6858283863 
 2104          556.979220215614 
 2105          573.41634914368 
 2106          617.85522509101 
 2107          633.879909834494 
 2108          634.41126444361 
 2109          655.948495071961 
 2110          650.085554344393 
 2111          576.824828765733 
 2112          449.059562936175 
 2113          399.362354129108 
 2114          414.122413876675 
 2115          520.73684429029 
 2116          566.409982239244 
 2117          613.885104680177 
 2118          565.873730069513 
 2119          574.771449923986 
 2120          565.197345748232 
 2121          624.58511782426 
 2122          652.89019670833 
 2123          574.054791658782 
 2124          486.509108616719 
 2125          524.927453428963 
 2126          687.95852575863 
 2127          807.77097700237 
 2128          754.70567573644 
 2129          651.497436739338 
 2130          614.803970064013 
 2131          581.9291572478 
 2132          539.751271087599 
 2133          481.121994022174 
 2134          545.080473416392 
 2135          614.290685763175 
 2136          585.33007125653 
 2137          518.394036567259 
 2138          534.969754523057 
 2139          614.792434944755 
 2140          642.622858063279 
 2141          629.848318989806 
 2142          600.868719106958 
 2143          606.037894592075 
 2144          456.134863026959 
 2145          391.342681602587 
 2146          522.778153116177 
 2147          657.057677351948 
 2148          616.65255094477 
 2149          592.927466479529 
 2150          603.512756259325 
 2151          622.943893712246 
 2152          618.429115445173 
 2153          607.067428322643 
 2154          609.100115185223 
 2155          549.807154587779 
 2156          474.227898275565 
 2157          462.486324600761 
 2158          521.463383791855 
 2159          530.121685880195 
 2160          502.379147527149 
 2161          515.154772023912 
 2162          620.733457302874 
 2163          569.438119542797 
 2164          547.691547416405 
 2165          503.890677045316 
 2166          505.608460369176 
 2167          499.741279067645 
 2168          460.434093383008 
 2169          497.19182230909 
 2170          513.006157146035 
 2171          627.814826861918 
 2172          645.917809758051 
 2173          646.540677821472 
 2174          556.860922079557 
 2175          588.884604006184 
 2176          606.103975074605 
 2177          624.969457668216 
 2178          595.255289934565 
 2179          547.798930475626 
 2180          480.858749532045 
 2181          461.174153668309 
 2182          496.23211860313 
 2183          606.011105463574 
 2184          622.590617275195 
 2185          611.56267793396 
 2186          626.496026997001 
 2187          661.26486570668 
 2188          583.474991907738 
 2189          591.407981939453 
 2190          570.181350965625 
 2191          542.722975051885 
 2192          500.473295684056 
 2193          558.085767122522 
 2194          537.078419494978 
 2195          523.555140512432 
 2196          496.42419644854 
 2197          511.914725833532 
 2198          536.595844376781 
 2199          561.920606762472 
 2200          537.133731607572 
 2201          576.474635631301 
 2202          570.230168002549 
 2203          557.749614206272 
 2204          517.798980438794 
 2205          469.328840581884 
 2206          466.752093758729 
 2207          494.964438742546 
 2208          504.109415941572 
 2209          553.742400944465 
 2210          518.573748759689 
 2211          500.315209190705 
 2212          479.789804215954 
 2213          474.807416363517 
 2214          494.768920205977 
 2215          550.218544075885 
 2216          576.557104750928 
 2217          629.009980937426 
 2218          646.942972900025 
 2219          672.185796297847 
 2220          744.429457737214 
 2221          774.719190397185 
 2222          710.038698277249 
 2223          604.610701695453 
 2224          480.728654202373 
 2225          525.996452681538 
 2226          545.905130738208 
 2227          491.166023267588 
 2228          405.543044143313 
 2229          477.45077305889 
 2230          513.16093839476 
 2231          522.545666305866 
 2232          562.092784248486 
 2233          560.913635174341 
 2234          533.336006506177 
 2235          484.064439381753 
 2236          544.62894093645 
 2237          648.551307915141 
 2238          641.66099865179 
 2239          551.870589540446 
 2240          434.253413335302 
 2241          423.471391358189 
 2242          451.648588885285 
 2243          493.852586909136 
 2244          543.398914341243 
 2245          553.051153811676 
 2246          568.746468948811 
 2247          546.598661530923 
 2248          518.873388892252 
 2249          426.814284326751 
 2250          388.132881459427 
 2251          373.231535833063 
 2252          409.097392828935 
 2253          434.960386618372 
 2254          440.783880125764 
 2255          465.4808080526 
 2256          475.777312827435 
 2257          431.547529490584 
 2258          461.688004081344 
 2259          512.713801335443 
 2260          516.859244554985 
 2261          483.391830894672 
 2262          517.600281075622 
 2263          480.931958683777 
 2264          370.394968402143 
 2265          314.976638597429 
 2266          372.152216521745 
 2267          458.253017172151 
 2268          396.765617909862 
 2269          378.046892986695 
 2270          332.233067159764 
 2271          407.897911522006 
 2272          406.388109006863 
 2273          362.414896886018 
 2274          331.197788806162 
 2275          427.53414980628 
 2276          421.488937620258 
 2277          409.765043210816 
 2278          409.247288741552 
 2279          414.661508318446 
 2280          450.302891586078 
 2281          417.58392123413 
 2282          400.87025767019 
 2283          481.126656293028 
 2284          518.820673871068 
 2285          466.127927001553 
 2286          345.619188938527 
 2287          368.8317256671 
 2288          403.583205624687 
 2289          402.692878533121 
 2290          353.731155213142 
 2291          347.225222211267 
 2292          307.619708614518 
 2293          343.767184481066 
 2294          451.823111364645 
 2295          452.766441312206 
 2296          360.510828112301 
 2297          348.215893999744 
 2298          354.543770306477 
 2299          367.073203059111 
 2300          421.918632926807 
 2301          434.277128535008 
 2302          408.807469867251 
 2303          463.313250853635 
 2304          515.124711964697 
 2305          460.590949571442 
 2306          456.589463523315 
 2307          452.709974584416 
 2308          478.52097473525 
 2309          508.546833562478 
 2310          545.526297463941 
 2311          511.457053350626 
 2312          483.54534754948 
 2313          425.416239150662 
 2314          436.865690945309 
 2315          422.660309718624 
 2316          473.545660805983 
 2317          581.045764417745 
 2318          583.376189193095 
 2319          446.12476351142 
 2320          415.538000021147 
 2321          406.894274293386 
 2322          408.22675266115 
 2323          357.917909552566 
 2324          357.808733043772 
 2325          342.987621456511 
 2326          299.422492520596 
 2327          198.691572125663 
 2328          274.310474829599 
 2329          347.875697773221 
 2330          310.888005965768 
 2331          288.000250581764 
 2332          393.395428732742 
 2333          330.886162260558 
 2334          297.241416997212 
 2335          388.717935690311 
 2336          455.909457652971 
 2337          271.744975402417 
 2338          262.24830173523 
 2339          223.650123662982 
##END=
