##TITLE=Isoxanthopterin, 97%
##JCAMP-DX=5.00 $$ ACD/DocManager Library v 8.12
##SPECTROMETER/DATA SYSTEM=TravelIR
##DATE=07 Jan 2003 02:17:28
##DATA TYPE=INFRARED SPECTRUM
##DATA CLASS=XYDATA
##ORIGIN=
##OWNER=
##NPOINTS=1738
##FIRSTX=650.09326172
##LASTX=4000.87011719
##MAXX=4000.87011719
##MINX=650.09326172
##MAXY=0.65906686
##MINY=0.01032660
##XFACTOR=1.0000000000
##YFACTOR=1.000000000000000e-9
##FIRSTY=0.49911791
##DELTAX=1.92905974
##XUNITS=1/CM
##YUNITS=ABSORBANCE
##XYDATA=(X++(Y..Y))
  650.0933      499117911      489757836      477592140      465706915
  657.8096      454761475      446312308      442249149      438792318
  665.5259      431286156      414452702      393430084      374277830
  673.2422      354589432      352073818      373297632      415421963
  680.9585      469379634      512813926      514150739      444152206
  688.6748      326254904      236816153      197380424      184297860
  696.3911      175190791      163160503      152621329      144689351
  704.1074      138621584      135231897      138208255      154018402
  711.8237      176535562      182309389      167643413      150224209
  719.54      140426099      139098182      142567948      147945300      155220538
  729.1854      164571509      175581738      188756138      206599131
  736.9017      226910189      241154537      247717544      247957885
  744.618      247395471      251663268      257854074      264883518      272350281
  754.2634      277050346      275480032      270556748      268456578
  761.9797      269492000      270156145      266531050      255941778
  769.696      238974795      219370648      202093199      189023331      179772452
  779.3414      173585981      169720680      169383854      175032482
  787.0577      189086005      222255170      291153252      325807661
  794.774      253572702      178164035      151979327      148893669      149447903
  804.4194      151154608      155457959      161257669      168485627
  812.1357      177421972      187916979      199991211      214046255
  819.8521      230505079      248425290      267204911      287999362
  827.5684      310223132      331598878      340675175      328211546
  835.2847      308006048      289247096      269224197      249253005
  843.001      231199265      215509638      202249989      191582814      183509350
  852.6464      177488163      173018992      169559881      167058840
  860.3627      165830985      166018054      167692021      170878127
  868.079      175808728      182028666      189285874      197577477      206890315
  877.7244      217746928      230231047      244676590      261646003
  885.4407      281563103      304806143      330176204      354809254
  893.157      374516517      384142458      381013900      366735190      343914539
  902.8024      315506518      285340071      255121648      225109816
  910.5187      195726290      167786211      143536314      125611946
  918.235      113840759      106281005      102387898      103201315      107508078
  927.8804      110502794      109881870      107495315      105296396
  935.5967      104102060      104077354      105264232      107823208
  943.313      111948885      117621057      124707639      133544356      145254970
  952.9584      161248207      182428002      209895313      238691613
  960.6747      248022944      219286770      167805806      124554843
  968.391      100280479       88209070       81214443       75790614       70611186
  978.0364       66025101       62550560       60043499       58366485
  985.7527       57452913       56996267       56778800       56646477
  993.469       56657985       57007134       57678770       58612321       59657611
 1003.1144       60703926       61728723       62691815       63389383
 1010.8307       63482158       62925801       61887581       60954444
 1018.547       60450669       60198214       60245968       60491405       60865551
 1028.1924       61240345       61709426       62332962       62984832
 1035.9087       63697703       64213261       64504512       64811498
 1043.625       65258399       65793291       66395760       67060605       67821287
 1053.2704       68619370       69486469       70572980       71655639
 1060.9867       72517239       73335722       74288711       75525559
 1068.703       77174000       78499772       78519583       77600464       76899745
 1078.3484       76844752       77227786       77867322       78625225
 1086.0647       79406351       80273740       81219226       82314089
 1093.781       83657980       85081875       86585715       88297561       90240039
 1103.4264       92583016       95670417      100135259      106258705
 1111.1427      113812022      120122366      119987622      114984468
 1118.859      112751327      116030119      123858608      136454284      153488785
 1128.5044      166309401      167732343      162259251      147252902
 1136.2207      125810459      112460598      108874947      109401643
 1143.937      111155823      113248229      115849607      119113602      123426020
 1153.5824      129033938      136088729      143977374      151272640
 1161.2987      157758385      164817914      173253193      183386385
 1169.015      196122900      213181287      236940816      269307524      302766532
 1178.6604      309971422      273165286      214359164      164482638
 1186.3767      135729864      123747952      120228507      120043047
 1194.093      121066280      122893877      125641406      130048916      137036338
 1203.7384      147192612      160666645      175839201      189187035
 1211.4547      197443977      199195862      192588747      176300347
 1219.171      155326724      137940019      128236860      124884076      124893241
 1228.8164      126488820      128764331      131372750      134324357
 1236.5327      137455985      140542805      143757150      147385582
 1244.249      151429981      155777618      160470575      165472895      170711756
 1253.8944      176077262      180956542      184499040      186099157
 1261.6107      186078116      186382636      188506737      192135170
 1269.327      196126893      199551091      202457264      205542937      209383875
 1278.9724      214068949      219348088      224926367      230689868
 1286.6887      236818284      243516654      251120150      260016441
 1294.405      270693511      282857299      292337686      287927866      261422068
 1304.0504      228276938      209746435      206645936      209829956
 1311.7667      213975117      217400670      219868928      221889704
 1319.483      223965541      226351127      229282662      232842281      236936867
 1329.1284      241444066      246311873      251272202      256469876
 1336.8447      262191355      268908948      276635170      284618944
 1344.561      293458939      303285092      313644618      324562788      335774779
 1354.2064      348074645      361662447      376676828      393287212
 1361.9227      412653208      435521603      456544012      468626469
 1369.639      465482503      451851577      444947481      457299143      486218780
 1379.2844      525630593      566790402      597237170      600938499
 1387.0007      568170667      515030265      458186686      405655265
 1394.717      362065285      330024272      308918357      293895483      285890281
 1404.3624      282057852      278474331      268637538      247392550
 1412.0787      218051314      191480681      172584608      161034808
 1419.795      150663540      142460763      139082715      137632996      138649240
 1429.4404      142324209      146985158      152896553      161350906
 1437.1567      172254011      181117341      191559806      205087900
 1444.873      220375210      238901645      262485951      288762063      319788247
 1454.5184      347613156      368227482      387878180      384443253
 1462.2347      357479781      314631104      265572459      222192556
 1469.951      188546866      167068705      153026775      146714196      145721495
 1479.5964      148281738      154329956      161009908      167820081
 1487.3127      174112022      179018572      182239220      183722526
 1495.0291      186751723      192593887      198712707      205463365
 1502.7454      212283954      220281690      234504953      247573882
 1510.4617      254516274      257634878      255234212      255965948
 1518.178      263963670      275641114      288349181      290308774      290816993
 1527.8234      296329498      305068314      317525417      337744296
 1535.5397      357257038      370395988      391508758      417579383
 1543.256      437178582      455625176      471024245      483721823      497538298
 1552.9014      508060455      520742655      527497351      535689950
 1560.6177      559891164      567729533      554212928      521853924
 1568.334      475396007      421995878      385917276      373881340      384684056
 1577.9794      404199183      425542116      454853058      482177764
 1585.6957      502179921      511453032      511643946      506341994
 1593.412      499660075      494711936      491103321      486416876      480480701
 1603.0574      475908399      473317593      472461611      472122371
 1610.7737      471789330      470199823      468598694      471046358
 1618.49      474289834      476762921      485983729      503050745      523143947
 1628.1354      551220417      584369123      613604724      633020580
 1635.8517      648679256      659066856      652009726      635876060
 1643.568      617600679      601084113      591413200      584652007      571525872
 1653.2134      552545607      537253261      518108666      492678136
 1660.9297      470083505      452376992      440588921      433664382
 1668.646      429579824      427583933      424808264      421141535      416845411
 1678.2914      410454988      395722866      375619680      349754840
 1686.0077      324876577      305717409      286699414      269777149
 1693.724      255524546      238093272      218716323      207584545      197854534
 1703.3694      197397143      208737478      226536766      244435847
 1711.0857      259627223      264980614      257378280      238059863
 1718.802      210888609      184768990      157540083      131273478      110227130
 1728.4474       94509527       82999289       75684875       68724006
 1736.1637       60734544       56634597       53388160       50328661
 1743.88       48328996       47261305       47132954       47386613       47353707
 1753.5254       47213584       46960685       45831814       44372246
 1761.2417       43000214       41035514       39329074       37970141
 1768.958       36362275       35024498       33380147       31633824       30446596
 1778.6034       29554084       28831039       28192008       27715433
 1786.3197       27223196       26859775       26616471       26359951
 1794.036       25958804       25768707       25759766       25861634       25926480
 1803.6814       25854118       25705855       25606852       25842510
 1811.3977       25939113       25843931       25929108       25981396
 1819.114       26074970       26214879       26292095       26683889       26989872
 1828.7594       26964540       26890764       26638532       26352419
 1836.4757       25850354       25037970       24333458       23738835
 1844.192       23079634       22207988       21340037       20629028       20059854
 1853.8374       19469744       18895302       18479532       18131660
 1861.5537       17804300       17575338       17364405       17289441
 1869.27       17250927       16845848       16516097       16438372       16441595
 1878.9154       16495217       16480058       16564710       16758345
 1886.6317       16837224       17031364       17109418       17048158
 1894.348       17202180       17255440       17163221       17289277       17525364
 1903.9934       17700655       17762735       17791167       17713001
 1911.7097       17769314       17694918       17411297       17263617
 1919.426       16881535       16607804       16503412       16282504       16025001
 1929.0714       15925182       15768331       15703127       15818551
 1936.7877       15625266       15643055       15919467       15687635
 1944.504       15434645       15362368       15291081       15491662       15598440
 1954.1494       15496491       15446912       15574489       15719529
 1961.8657       15789097       15941160       16333615       16828980
 1969.582       16933478       16632948       16056979       16061213       16506238
 1979.2274       17087949       17318742       16638698       16644441
 1986.9437       17319215       17646538       17457483       17083051
 1994.66       17056990       17135527       17392131       17782254       17941868
 2004.3054       18023802       18315079       19032821       19630009
 2012.0217       19781681       19802421       19923212       20109955
 2019.738       20484762       20673320       21047343       21008207       20560656
 2029.3834       20797782       20346124       20049205       20019809
 2037.0997       19607691       19357670       19170446       19506251
 2044.816       19742347       19415740       19202810       19219253       19341605
 2054.4609       19282617       19303670       19591078       19620273
 2062.1768       19594707       19636827       19542919       19355856
 2069.8926       19096902       19107247       19031467       18938934
 2077.6084       19175043       19125890       19081688       19068411
 2085.3242       18874146       18820954       18944304       19100159
 2093.04       19168764       19049082       18740868       18757200       18984802
 2102.6848       19164903       19519988       19766573       19826496
 2110.4006       19845216       20032119       20334795       20590998
 2118.1165       20901475       21074986       21168420       21349473
 2125.8323       21428375       21734538       22437841       23020918
 2133.5481       23330703       23636220       23743814       23557475
 2141.2639       23573048       23312246       23019278       22945961
 2148.9797       22678308       22612259       22285663       21873185
 2156.6956       21993950       22798542       23701794       23502365
 2164.4114       23053858       23088498       23202673       23252489
 2172.1272       23073090       23002589       23051759       22901651
 2179.843       22801509       22736810       22930237       22967590       22999588
 2189.4878       23171902       23300406       23773350       23822181
 2197.2036       23601091       23933094       24141846       23928944
 2204.9194       23795946       23565076       23766510       24290558
 2212.6353       24401080       24494825       24702057       24881845
 2220.3511       25075534       25404656       25571326       25749246
 2228.0669       26252391       26399586       26010687       25560707
 2235.7827       25610274       25830016       25683209       25759980
 2243.4985       26060203       26234074       26404431       26738795
 2251.2144       26934475       27000416       27388735       27891586
 2258.9302       28193275       28020613       27706131       27553162
 2266.646       27438754       27419386       27275508       27220221       27357733
 2276.2908       27593082       27912201       28011104       28155006
 2284.0066       28451534       28771693       29365184       29815238
 2291.7224       29944250       30211030       30602368       31027135
 2299.4382       31598143       32226160       32616574       32794043
 2307.1541       32910071       32892209       32679632       32365941
 2314.8699       31984523       31710133       31542659       31342212
 2322.5857       31282935       31112883       30763991       30571213
 2330.3015       30700682       31034537       31209843       31298622
 2338.0173       31616047       31984784       32251548       32661583
 2345.7332       33080112       33197485       33118043       33158917
 2353.449       33456314       33792667       33927280       33889793       33925172
 2363.0938       33904161       33949174       34250267       34577064
 2370.8096       34782514       34704115       34660093       34862112
 2378.5254       34981690       35064500       35246160       35478164
 2386.2412       35682049       35998657       36436152       36635529
 2393.957       36678247       36840629       36873836       36817517       36935750
 2403.6018       37186734       37613504       38076319       38528077
 2411.3176       39081234       39788909       40483806       41062888
 2419.0334       41611299       42340413       43264654       43983191
 2426.7493       44451226       44788796       45129683       45366578
 2434.4651       45336396       45261890       45186989       45181628
 2442.1809       45308571       45407817       45702647       46206079
 2449.8967       46705578       47196526       47664553       48274379
 2457.6125       48956327       49684688       50379951       50957333
 2465.3284       51831916       52892540       53756475       54420903
 2473.0442       54870628       55109289       55269834       55287991
 2480.76       54989338       54623332       54456349       54320063       54254945
 2490.4048       54454912       54798987       55195563       55657238
 2498.1206       56154858       56604661       57159964       57947807
 2505.8364       58821708       59720524       60525183       61283641
 2513.5522       62093366       62698662       62975183       63139081
 2521.2681       63296780       63257083       63111015       63058332
 2528.9839       63068584       63089095       63233592       63512206
 2536.6997       63869208       64370915       65043867       65770544
 2544.4155       66386692       67004971       67647226       68420112
 2552.1313       69399811       70376925       71059227       71588784
 2559.8472       72208665       72703302       73070757       73342860
 2567.563       73489018       73655926       73875576       74138597       74480377
 2577.2078       74861109       75293943       75904794       76524615
 2584.9236       77093460       77728190       78320563       79066135
 2592.6394       80015324       80833711       81499524       82476676
 2600.3552       83558813       84585905       85669771       86414166
 2608.071       87165505       88150226       89114502       90048499       90984106
 2617.7158       92016555       93105264       94202943       95219597
 2625.4316       96158110       97200684       98291300       99331692
 2633.1475      100368842      101407170      102386422      103271037
 2640.8633      104092516      104980417      105967119      106950819
 2648.5791      107930146      109010659      110199235      111451581
 2656.2949      112563372      113459729      114318065      115109257
 2664.0107      115788810      116408981      116942972      117410317
 2671.7266      118030190      118824594      119638160      120433360
 2679.4424      121409170      122524805      123606808      124918774
 2687.1582      126441240      128048494      129734322      131501123
 2694.874      133402407      135454252      137702167      140041411      142372608
 2704.5188      144672453      146960527      149259269      151482597
 2712.2346      153573513      155588537      157550067      159582824
 2719.9504      161669299      163741902      165926889      168168724
 2727.6663      170346528      172566876      174699649      176611081
 2735.3821      178665146      180984452      183359221      185670689
 2743.0979      188096642      190563485      192760959      194581613
 2750.8137      196102381      197460905      198567450      199477017
 2758.5295      200287476      201021969      201901183      202878997
 2766.2454      203753129      204583123      205510572      206372261
 2773.9612      207031041      207491219      207716480      207682878
 2781.677      207416534      206889763      205782935      203892976      201256916
 2791.3218      198015079      194183975      190086022      185790136
 2799.0376      181103155      176234663      171248361      166342124
 2806.7534      161760494      157571927      154102772      151601091
 2814.4692      149889663      148934454      148702979      148878366
 2822.1851      149422988      150524348      151957586      153494105
 2829.9009      155109361      156619430      157949656      159229845
 2837.6167      160401717      161400288      162559241      163758770
 2845.3325      164768055      165708363      166522771      167237625
 2853.0483      168028057      168748707      169108421      169301465
 2860.7642      169583753      169858038      170004621      170060277
 2868.48      170055181      170037791      169986084      169999078      170127109
 2878.1248      170166984      170178413      170303509      170542642
 2885.8406      170881182      171203360      171592370      171988323
 2893.5564      172195047      172345087      172185928      171613380
 2901.2722      170944884      170042917      168928549      167736560
 2908.988      166599065      165651560      164521962      163192376      162014812
 2918.6328      161195040      160474956      159885436      159694061
 2926.3486      159585014      159666583      160196692      160768002
 2934.0645      161352038      162057325      162620470      162863165
 2941.7803      162810236      162607461      162074730      161208063
 2949.4961      160196796      159115955      157939717      156471997
 2957.2119      154598191      152755067      150728494      148010105
 2964.9277      145200670      142667457      140511036      138670832
 2972.6436      136843011      135201797      134072557      133437902
 2980.3594      132919237      132459834      132178888      132271111
 2988.0752      132416829      132192865      132267475      132847652
 2995.791      133306071      133658811      134364024      135262415      136259779
 3005.4358      137322456      138614982      140258089      141872585
 3013.1516      143568173      145434052      147276729      149183363
 3020.8674      151114956      152969420      154763594      156300113
 3028.5833      158018723      160030544      161723182      163549036
 3036.2991      165801033      168143228      170748547      173537925
 3044.0149      176620767      180216178      183678821      186472714
 3051.7307      188267544      188815668      188455790      187668875
 3059.4465      186963886      186826438      187176466      187633649
 3067.1624      188263267      189330921      190655977      192115441
 3074.8782      193840787      195765033      197547063      199201748
 3082.594      201217711      203344032      205292642      207351133      209349692
 3092.2388      211243913      213204592      215069786      216739699
 3099.9546      217713565      218151137      218542397      218386710
 3107.6704      217560112      216127753      214304626      212202609
 3115.3862      209214345      205633625      202028081      198136419
 3123.1021      194031686      189647198      185156718      180857643
 3130.8179      176438615      172120020      168093130      164192975
 3138.5337      160517424      157016575      153903276      151232913
 3146.2495      148821816      146836907      145271078      144216672
 3153.9653      143624157      143258274      143533140      144228324
 3161.6812      145031139      146227151      147339284      148512423
 3169.397      150080532      151675776      152769938      153345749      153820336
 3179.0417      153947532      153559491      152763262      151448816
 3186.7576      149627969      147592634      145272285      142747819
 3194.4734      140747771      139625221      139256567      139234647
 3202.1892      139375836      139912605      140628651      141332403
 3209.905      141830176      141752869      141670749      141602367      141467899
 3219.5498      141472071      141045436      140525177      140198410
 3227.2656      139830872      139319405      138673365      137956366
 3234.9814      137321651      136915162      136437908      135558560
 3242.6973      134676650      134237587      133922771      133652851
 3250.4131      133522943      133461311      133219913      132873654
 3258.1289      132219389      131419525      130811170      129798144
 3265.8447      128854439      128132120      127052873      125875786
 3273.5605      124958955      123806074      122350961      120980389
 3281.2764      119303815      117280789      114805982      112047933
 3288.9922      109220840      105860561      102028556       98125763
 3296.708       93970060       89883953       86166382       82318448       78196563
 3306.3528       74311815       70938617       67653544       64650886
 3314.0686       61927572       59369061       56909230       54437663
 3321.7844       52224915       50339956       48758615       47037560
 3329.5002       45391470       44320244       43326803       42295337
 3337.2161       41406851       40567245       39892700       39307173
 3344.9319       38747247       38277753       37746765       37091922
 3352.6477       36440909       35797436       35019334       34072872
 3360.3635       33193070       32382105       31509507       30570716
 3368.0793       29458072       28505763       27946580       27255457
 3375.7952       26291376       25336888       24392432       23625694
 3383.511       23010327       22387953       21735372       21212365       20813394
 3393.1558       20284412       19694526       19238789       18860824
 3400.8716       18477341       18174248       17853983       17669428
 3408.5874       17523536       17171711       16731849       16446698
 3416.3032       16388848       16222671       16019717       15918789
 3424.019       15598430       15233221       15289289       15269048       14923957
 3433.6638       14716812       14458924       14119745       14076991
 3441.3796       14174721       14070990       13846269       13736014
 3449.0955       13816893       13806134       13561996       13466137
 3456.8113       13501242       13298590       13033642       12900736
 3464.5271       12902905       13068937       12984548       12846191
 3472.2429       12961957       12893118       12731238       12659931
 3479.9587       12522798       12442136       12498456       12603035
 3487.6746       12628131       12535944       12451136       12423846
 3495.3904       12380424       12177744       12112561       12199882
 3503.1062       12194760       12239765       12216926       12189020
 3510.822       12241334       12098552       11967743       11986096       11837834
 3520.4668       11734799       11804694       11743922       11651495
 3528.1826       11755360       11849832       11716826       11569952
 3535.8984       11660795       11775954       11759057       11646348
 3543.6143       11420576       11410463       11654214       11775142
 3551.3301       11619248       11616088       11653931       11350632
 3559.0459       11167213       11172730       11270781       11384429
 3566.7617       11361221       11319242       11313291       11201483
 3574.4775       11061361       11118033       11277365       11220566
 3582.1934       11186370       11241621       10993161       10934736
 3589.9092       10994958       10831849       10719246       10757620
 3597.625       10853928       10855229       11010584       11122517       11019873
 3607.2698       10863384       10883003       11151147       11155678
 3614.9856       10942659       10631022       10516834       10831901
 3622.7014       10951806       10952231       10884192       10678792
 3630.4172       10756990       10752534       10632101       10757566
 3638.1331       10919311       10948611       10799540       10657498
 3645.8489       10692053       10641843       10600725       10790616
 3653.5647       10761657       10681611       10691227       10512649
 3661.2805       10488758       10627268       10824651       10877334
 3668.9963       10513296       10326601       10475234       10639281
 3676.7122       10665650       10499044       10413626       10474089
 3684.428       10604164       10681110       10687575       10814583       10831434
 3694.0728       10722991       10852544       10828579       10711674
 3701.7886       10756389       10815092       10835645       10818787
 3709.5044       10721755       10545684       10615763       10695700
 3717.2202       10634885       10616756       10752441       10921739
 3724.936       10918646       10854774       10896555       10785307       10580294
 3734.5808       10652928       10784904       10974204       11137344
 3742.2966       10987268       11145399       11303964       10932636
 3750.0125       11053189       11302280       11250416       11077762
 3757.7283       11050330       11197596       11236214       11293827
 3765.4441       11318597       11222220       11237683       11480773
 3773.1599       11475624       11362881       11265030       11226600
 3780.8757       11373369       11453911       11362405       11315715
 3788.5916       11463894       11532304       11307679       11106146
 3796.3074       11298290       11334803       11040919       11141540
 3804.0232       11386509       11199359       11183465       11393839
 3811.739       11376141       11251850       11305540       11545711       11451534
 3821.3838       11520786       11651075       11419710       11546602
 3829.0996       11695881       11627411       11738108       11738793
 3836.8154       11685866       11715862       11672798       11628776
 3844.5313       11685455       11844052       11955575       11867846
 3852.2471       11729178       11929569       12027713       11800967
 3859.9629       11682871       11787587       11952043       12129534
 3867.6787       12152499       12110375       12090894       11858736
 3875.3945       11928921       12137217       12019891       12074429
 3883.1104       12175319       12115926       12188192       12150295
 3890.8262       11944752       11838011       11938419       11996697
 3898.542       12013439       12175772       12181245       12132417       12054712
 3908.1868       11941434       11944944       11968638       12065616
 3915.9026       12238124       12305240       12332565       12293885
 3923.6184       12101030       12120455       12091607       12013251
 3931.3342       12135999       12225135       12309464       12375604
 3939.05       12410186       12426703       12435835       12352327       12453708
 3948.6948       12600012       12528234       12518813       12452112
 3956.4106       12440587       12494653       12549090       12593612
 3964.1265       12439420       12281266       12307172       12317669
 3971.8423       12368402       12499738       12445347       12621905
 3979.5581       12769799       12488253       12425733       12596844
 3987.2739       12671770       12695494       12746853       12806803
 3994.9897       12833320       12925710       13129199       13246148
##END=$$ End of the data block
