##TITLE=1,1-Bis(4-chlorophenyl)-2,2,2-trichloroethane, 99+%
##JCAMP-DX=5.00 $$ ACD/DocManager Library v 8.12
##SPECTROMETER/DATA SYSTEM=TravelIR
##DATE=28 Mar 2003 04:32:52
##DATA TYPE=INFRARED SPECTRUM
##DATA CLASS=XYDATA
##ORIGIN=
##OWNER=
##NPOINTS=1738
##FIRSTX=650.09326172
##LASTX=4000.87011719
##MAXX=4000.87011719
##MINX=650.09326172
##MAXY=0.28895316
##MINY=0.02274679
##XFACTOR=1.0000000000
##YFACTOR=1.000000000000000e-9
##FIRSTY=0.10349844
##DELTAX=1.92905974
##XUNITS=1/CM
##YUNITS=ABSORBANCE
##XYDATA=(X++(Y..Y))
  650.0933      103498437       75102575       71296476       72323427
  657.8096       73460512       74853115       76172546       77882126
  665.5259       81085734       88664182       99338405      109601125
  673.2422      123893209      137081653      141437888      131804064
  680.9585      123251759      128108814      136475638      138257250
  688.6748      127204806      103922263       83830185       77475391
  696.3911       78968450       80668010       82686052       85173242
  704.1074       89880608       99971108      124020189      154721305
  711.8237      161338702      124911517       78363590       61876111
  719.54       64897798       68935916       73698454       78878425       90198815
  729.1854      108432211      105322689       86469926       81781708
  736.9017       85185401       90298101       96387766      102377973
  744.618      108826749      116156809      125919849      138113916      150262177
  754.2634      159551233      169323459      182907462      202083334
  761.9797      231505543      269266784      288953155      271324128
  769.696      235866755      201925665      180253193      178608730      192146376
  779.3414      207002491      204963565      172844544      121154509
  787.0577       77118330       54156300       45933042       43075819
  794.774       41695606       40890381       40755805       41707493       43257408
  804.4194       46757452       55878233       76620795       90029076
  812.1357       75174689       57331860       52207090       54703765
  819.8521       63107572       78342132       94234861       92915520
  827.5684       82670301       79547450       89441605      108300626
  835.2847      137186632      176320165      156584814       95430955
  843.001       73421672       85089393      112222627      135612786      128462419
  852.6464       94092906       61077952       45017820       39206948
  860.3627       36820959       35457980       34068111       32838978
  868.079       31980999       31193407       30854043       31117070       31730983
  877.7244       32351900       32879580       33494093       34457363
  885.4407       35672989       37473440       41185055       46973377
  893.157       52930251       55571321       49539734       38465794       31705789
  902.8024       29406486       28885350       28997984       28900988
  910.5187       28822109       28775919       28725915       28935511
  918.235       29277250       29577455       29982764       30307852       30671017
  927.8804       31106116       31497356       31905390       32355536
  935.5967       33044375       34529462       37916407       43854024
  943.313       48103560       42949632       36151912       36294956       37778266
  952.9584       38673956       37257116       34837380       34891140
  960.6747       35342976       36752649       38740445       38365502
  968.391       37991736       38028143       37688419       38364056       39197575
  978.0364       40318493       41796975       43228060       44593088
  985.7527       46132363       48139043       51388830       56897607
  993.469       65346725       73551014       77537954       74110642       65688565
 1003.1144       59186101       60146548       64688765       70165753
 1010.8307       81404343      115743078      155874029      118020773
 1018.547       54792840       34112748       30618459       30960819       32192420
 1028.1924       32702703       32951791       33158053       33798113
 1035.9087       33779714       33162422       32597519       32292448
 1043.625       32233007       32995380       34038082       35288721       36335595
 1053.2704       36645070       36298253       36428299       37059341
 1060.9867       37579451       38038228       38899790       39881524
 1068.703       41313890       43679684       46538047       49493868       52502006
 1078.3484       55724539       58845896       61676152       65887496
 1086.0647       74235581       89399152      110902809      137418479
 1093.781      164271832      156940550      102773204       56711558       42962883
 1103.4264       43024279       46537362       50112203       51989608
 1111.1427       57952933       70150897       70416562       52302416
 1118.859       38488496       35516702       35845295       35898224       33361603
 1128.5044       29836275       27914761       27380314       27458161
 1136.2207       27980676       28612997       28990246       28942013
 1143.937       28560523       28413355       28614216       28569262       28003078
 1153.5824       27427370       27244227       27352978       27626090
 1161.2987       27802411       27609471       27246544       27134584
 1169.015       27576080       28412940       29101824       29233027       28711941
 1178.6604       28306864       29053841       32669216       35497438
 1186.3767       33644442       30884944       28855534       27760848
 1194.093       27460165       27307123       27409794       27491249       27652832
 1203.7384       27820302       27841067       27649432       27493145
 1211.4547       27520625       27697258       27830055       27947489
 1219.171       28115915       28418316       28742962       28958101       29265007
 1228.8164       29757487       30332562       30957060       31515874
 1236.5327       32327879       33940535       36002982       37320007
 1244.249       36925711       35325378       33855330       33049915       32609925
 1253.8944       32641962       33446688       35003103       37434705
 1261.6107       40437952       43059606       44590913       42678650
 1269.327       37038889       32198627       30198520       29603887       29478721
 1278.9724       29488379       29465167       29529708       29933969
 1286.6887       30558608       30859195       30588858       30180952
 1294.405       30249622       30373717       29908350       29424878       29291295
 1304.0504       29340686       29457681       29576134       29594313
 1311.7667       29681131       30143963       31364605       32428946
 1319.483       31667344       30451072       30197203       30485818       31001804
 1329.1284       31570341       31880513       31514876       30940104
 1336.8447       30704677       30623514       30526403       30403515
 1344.561       30302864       30408831       30762142       31318475       32091517
 1354.2064       32828569       32974519       32642901       32583758
 1361.9227       32949444       33199117       32928064       32467335
 1369.639       32138612       32008506       32174494       32450501       32765891
 1379.2844       33131268       33427261       33776909       34300596
 1387.0007       35217658       36412854       37741374       39394502
 1394.717       41597374       44135790       47519587       52641373       58517784
 1404.3624       67776896       80392070       83910957       73072016
 1412.0787       58529105       47499515       39845023       36708124
 1419.795       35825558       34908336       34581851       34240875       33910662
 1429.4404       33922628       34013309       34175321       34745619
 1437.1567       35671130       35841748       36005151       36681756
 1444.873       37832357       39632086       42036444       43466043       42760715
 1454.5184       41446965       41876528       43416172       44338077
 1462.2347       45449663       47200248       49306717       51857289
 1469.951       55661634       61831210       69117725       69158092       64144582
 1479.5964       62494922       66176690       73784992       84753595
 1487.3127      102079414      125593483      145282388      137120590
 1495.0291       97747974       51836282       33128969       29162703
 1502.7454       28444450       29628480       30269971       27393220
 1510.4617       25187396       24403512       24294833       24884352
 1518.178       25504373       26031960       26225043       25850218       25445042
 1527.8234       24997707       24621185       24524132       24667639
 1535.5397       24532957       24583338       25064822       25189029
 1543.256       25171023       25216760       25282536       25713479       26210668
 1552.9014       26562782       26794827       26823064       27361490
 1560.6177       27507640       27275817       27734632       28331330
 1568.334       29224694       31315312       33626053       34649834       33485763
 1577.9794       31825196       31993922       33316121       35295211
 1585.6957       38910694       46969809       57802077       57128493
 1593.412       43388773       32440115       28418664       27745752       28149266
 1603.0574       28435418       28362682       27802980       27130073
 1610.7737       26613235       26316119       26289148       26707595
 1618.49       26925964       26837407       26823279       26605828       26257135
 1628.1354       26153212       26195854       26208613       26366055
 1635.8517       26704853       26831845       26965287       27242025
 1643.568       27421096       27554611       27543345       27150275       27089311
 1653.2134       27944986       28261494       28263260       28375456
 1660.9297       28257493       28102674       27867982       27698988
 1668.646       27740814       27642438       27126364       26928382       26890650
 1678.2914       26707958       26598059       26520556       26698641
 1686.0077       26380531       25897447       25828827       25757894
 1693.724       25660943       25903324       25840027       25899103       26082005
 1703.3694       25824431       25925832       25927335       25866136
 1711.0857       25959587       26043227       26047582       26219215
 1718.802       26493005       26385257       26397498       26475573       26418876
 1728.4474       26448674       26441470       26449258       26806988
 1736.1637       26645290       26433341       26597444       26637526
 1743.88       26654473       26600350       26503474       26589058       26967155
 1753.5254       27068675       27044227       27070850       26847338
 1761.2417       26970455       27256571       27285490       27513262
 1768.958       27672797       27748439       28114181       28189195       28105548
 1778.6034       28316431       28660400       28606171       28312894
 1786.3197       28167227       28030468       28049121       28300306
 1794.036       28466087       28399091       27965967       27393740       27068023
 1803.6814       26915960       26807679       26734626       26762569
 1811.3977       26807055       26756797       26650818       26657909
 1819.114       26754500       26859095       27015183       27155956       27031869
 1828.7594       26896471       27067747       27141707       27130410
 1836.4757       27141230       27224999       27276121       27315911
 1844.192       27455974       27358958       27382113       27442731       27478628
 1853.8374       27702045       27739277       27727541       27874326
 1861.5537       27918125       27814606       27768474       27877811
 1869.27       27972467       27976887       27998917       28037362       28144291
 1878.9154       28198030       28325388       28449103       28442770
 1886.6317       28691800       29089473       29376579       29685866
 1894.348       30102557       30776558       31849124       33628967       35175130
 1903.9934       34152098       31989947       31339172       31685237
 1911.7097       32290533       33212807       33628091       32370485
 1919.426       30526234       29745832       29466126       29093929       28931940
 1929.0714       29069507       29215494       29479001       29611403
 1936.7877       29331259       29125759       29049013       29166980
 1944.504       29515421       29550301       29434403       29514182       29732792
 1954.1494       29638041       29460145       29820481       30186638
 1961.8657       30287094       30264243       30317124       30515870
 1969.582       30582216       30762276       30948346       30859936       30794995
 1979.2274       30544156       30351650       30324519       30362543
 1986.9437       30736579       31091506       31068608       30628653
 1994.66       30283174       30328663       30491354       30527761       30509520
 2004.3054       30491592       30353999       30804388       31409532
 2012.0217       31097330       30512560       30537959       30823296
 2019.738       30994682       31268802       31044031       30736670       30796243
 2029.3834       31145396       32038879       32550942       32094777
 2037.0997       31408243       31091215       30999685       30966815
 2044.816       30874362       30570891       30256495       30219847       30044273
 2054.4609       29782292       29685359       29555382       29655494
 2062.1768       29820807       29974980       30068463       29724319
 2069.8926       29337235       29401660       29510587       29456848
 2077.6084       29515374       29478341       29518120       29478418
 2085.3242       29360421       29505156       29558321       29572485
 2093.04       29712355       29549804       29341850       29477822       29508857
 2102.6848       29481959       29579353       29746467       29859805
 2110.4006       29806089       29552421       29396564       29263750
 2118.1165       29071098       29202091       29370759       29586811
 2125.8323       29606475       29353194       29408546       29600490
 2133.5481       29719247       29762981       30093648       30447559
 2141.2639       30291041       30225925       30406991       30613458
 2148.9797       30879691       30974006       30734686       30632617
 2156.6956       30602349       31248994       32108910       31533007
 2164.4114       31530418       32075118       32123778       31837210
 2172.1272       31389140       31382337       31237628       31333916
 2179.843       31758983       31797126       31620897       31509370       31725336
 2189.4878       31949926       31781498       31654481       31434786
 2197.2036       31400219       31636417       31469319       31290527
 2204.9194       31177180       30995319       30747062       30507177
 2212.6353       30402277       30446060       30717326       30654056
 2220.3511       30188236       30019538       30134689       30322228
 2228.0669       30788545       31096458       30863732       30529818
 2235.7827       30243523       30217471       30418968       30462995
 2243.4985       30224171       30054102       29927351       29529868
 2251.2144       29439967       29737504       29921748       29969180
 2258.9302       29955201       29647999       29305803       29310223
 2266.646       29433066       29644322       29603861       29324913       29381599
 2276.2908       29337414       29181596       29221043       29210927
 2284.0066       29251400       29412594       29486291       29308360
 2291.7224       29176841       29089835       28858710       28816411
 2299.4382       28865675       28775360       28830705       28844940
 2307.1541       28688943       28646976       28515987       28413638
 2314.8699       28358808       28228354       28139330       28032016
 2322.5857       27943416       27879147       27781267       27759574
 2330.3015       27774485       27648702       27529188       27518528
 2338.0173       27622102       27676644       27689759       27788118
 2345.7332       27829761       27492059       27187245       27298184
 2353.449       27551649       27713133       27617181       27747713       27823996
 2363.0938       27666312       27760290       27637759       27567994
 2370.8096       27753644       27869154       27894294       27863083
 2378.5254       27772943       27664937       27811158       28001077
 2386.2412       27932540       27868249       27902257       27901921
 2393.957       27886050       27993267       28057132       27916854       27909253
 2403.6018       28013550       28013866       28064255       28110176
 2411.3176       28102838       28160030       28205769       28113130
 2419.0334       27976088       28037915       28207997       28133448
 2426.7493       28023189       28119834       28081078       28084924
 2434.4651       28217060       28233055       28191529       28092561
 2442.1809       28089713       28062858       28034160       28155224
 2449.8967       28162789       28023507       27870243       27912119
 2457.6125       28159665       28339140       28303053       28149635
 2465.3284       28113352       28145630       28127246       28088430
 2473.0442       28011803       27905159       27874095       27980613
 2480.76       28024632       27971379       28111281       28300503       28283389
 2490.4048       28089453       27928825       27914684       27876768
 2498.1206       27928468       28127780       28261328       28326159
 2505.8364       28383674       28414471       28407225       28139934
 2513.5522       27943548       27989637       27786106       27721215
 2521.2681       27979037       28122002       28009236       27831374
 2528.9839       27844304       27909463       28014068       28035920
 2536.6997       27910093       27796928       27706742       27808577
 2544.4155       27922973       27939823       27974050       27983252
 2552.1313       28077248       28053358       27881850       27981803
 2559.8472       28048554       27871829       27697425       27656985
 2567.563       27748454       27637117       27545607       27747316       27806476
 2577.2078       27709072       27710374       27681394       27678011
 2584.9236       27849855       27849346       27654748       27741173
 2592.6394       27847225       27812041       27780075       27734289
 2600.3552       27813558       27816443       27692629       27631197
 2608.071       27528284       27450971       27454313       27252899       26992340
 2617.7158       26923688       26864124       26832640       26968174
 2625.4316       27096249       27047690       26945511       26892873
 2633.1475       26947338       27020974       26941378       26874807
 2640.8633       26873142       26824888       26802382       26802670
 2648.5791       26712194       26653416       26760228       26824603
 2656.2949       26748765       26682781       26735667       26829358
 2664.0107       26770703       26593786       26542906       26615771
 2671.7266       26605971       26597412       26672270       26580831
 2679.4424       26421836       26418634       26492523       26496736
 2687.1582       26389290       26370192       26357198       26348570
 2694.874       26363747       26342979       26346326       26264336       26283871
 2704.5188       26373850       26317913       26279245       26331101
 2712.2346       26294708       26344676       26503298       26367025
 2719.9504       26303547       26413741       26362825       26278574
 2727.6663       26279813       26339734       26396511       26460871
 2735.3821       26406763       26315883       26331063       26408153
 2743.0979       26431905       26386702       26409335       26431592
 2750.8137       26367959       26358945       26406851       26325183
 2758.5295       26301662       26450198       26499772       26441511
 2766.2454       26463756       26510550       26495080       26477130
 2773.9612       26531201       26526855       26460983       26418010
 2781.677       26345672       26388114       26389023       26326509       26471859
 2791.3218       26522022       26402781       26322894       26258454
 2799.0376       26212310       26215680       26285917       26379356
 2806.7534       26384560       26282746       26230959       26193960
 2814.4692       26184682       26295356       26377616       26365951
 2822.1851       26296716       26151571       26145024       26247283
 2829.9009       26247585       26248788       26260288       26224494
 2837.6167       26166638       26128836       26091028       26045969
 2845.3325       26029117       25986610       25885850       25896197
 2853.0483       26016610       26108660       26148962       26135400
 2860.7642       26024668       25902988       25929801       26106333
 2868.48       26161605       26057238       26063140       26082451       26045183
 2878.1248       25972573       25981814       26060386       26125060
 2885.8406       26174409       26166607       26112901       26006285
 2893.5564       25990939       26015192       26052089       26064314
 2901.2722       25983015       25950495       25925510       25862735
 2908.988       25834044       25949569       26148250       26338896       26542930
 2918.6328       26652558       26483895       26151113       26020357
 2926.3486       25972566       26010418       26082108       25971709
 2934.0645       25943011       25956078       25939593       26084416
 2941.7803       26104119       25910564       25891924       25901353
 2949.4961       25861049       25899982       25926787       25849212
 2957.2119       25787929       25795478       25881091       26052574
 2964.9277       26059275       26042087       26122898       26190950
 2972.6436       26179392       26155600       26263706       26381230
 2980.3594       26357975       26305726       26395246       26539775
 2988.0752       26569661       26438165       26252862       26217112
 2995.791       26319373       26350634       26283532       26193283       26317457
 3005.4358       26428338       26300265       26368711       26406087
 3013.1516       26318714       26348716       26420595       26551107
 3020.8674       26643658       26751278       26914464       26970003
 3028.5833       27064204       27293792       27414691       27465323
 3036.2991       27386641       27086468       26891174       26810937
 3044.0149       26672095       26690440       26960077       27172072
 3051.7307       27331825       27423484       27205171       26853090
 3059.4465       26705310       26707267       26621671       26633047
 3067.1624       26645862       26738465       27024435       27082765
 3074.8782       27123686       27262682       27236884       27064063
 3082.594       26971916       26988264       26940536       26949279       26989220
 3092.2388       26877746       26704229       26700091       26826182
 3099.9546       26856905       26788590       26655886       26570156
 3107.6704       26471181       26377944       26358176       26212553
 3115.3862       26094336       26105095       26052773       26067451
 3123.1021       26133288       26209326       26185717       26026974
 3130.8179       26095111       26190491       26274554       26260609
 3138.5337       26143719       26159633       26168793       26144648
 3146.2495       26131162       26139777       26108515       26093669
 3153.9653       26029224       25864210       25875056       26022764
 3161.6812       26011044       25971258       25863335       25735147
 3169.397       25811575       25801333       25775876       25883578       25883272
 3179.0417       25842402       25882797       25930354       25907952
 3186.7576       25746385       25642818       25728276       25736222
 3194.4734       25685418       25791828       25708348       25555853
 3202.1892       25697118       25666963       25558628       25661977
 3209.905       25637962       25574036       25665335       25593963       25448795
 3219.5498       25487615       25609395       25700497       25691498
 3227.2656       25721658       25683543       25501370       25387686
 3234.9814       25278524       25330428       25508590       25484618
 3242.6973       25443245       25529526       25602864       25604794
 3250.4131       25700720       25695061       25559898       25489258
 3258.1289       25352282       25336478       25369583       25325609
 3265.8447       25550917       25723314       25521889       25444018
 3273.5605       25394959       25336459       25422800       25474835
 3281.2764       25475131       25421845       25488200       25491094
 3288.9922       25335433       25416734       25511988       25432488
 3296.708       25376195       25206510       25153445       25149588       25103144
 3306.3528       25186343       25347278       25599642       25608778
 3314.0686       25491497       25448224       25277887       25190957
 3321.7844       25194820       25066644       25066614       25113013
 3329.5002       25230922       25381373       25248364       25139246
 3337.2161       25115052       25168745       25434133       25408229
 3344.9319       25106454       25056658       25083210       25164407
 3352.6477       25330842       25225235       24916714       25001001
 3360.3635       25208998       25182595       25268650       25295543
 3368.0793       25099130       25076542       25177496       25143163
 3375.7952       25143551       25114506       25143649       25325911
 3383.511       25256362       24942422       24934640       25014771       25005760
 3393.1558       25125086       25039224       25009306       25144326
 3400.8716       24930542       24821987       24942679       24965944
 3408.5874       25176760       25250478       25081046       24959855
 3416.3032       24914376       25018400       24958892       24753543
 3424.019       24507750       24397610       24717890       24907043       24812633
 3433.6638       24703981       24749627       24985820       25075311
 3441.3796       24970189       24945609       24980672       24928784
 3449.0955       24897717       24823485       24889421       25044195
 3456.8113       25038827       25021097       25055569       25135420
 3464.5271       25191028       25143109       25026252       24765428
 3472.2429       24662126       24873078       24909003       24879165
 3479.9587       24959063       25134493       25096005       24796378
 3487.6746       24641452       24725467       24900317       24891805
 3495.3904       24736945       24887776       24984689       24683245
 3503.1062       24664694       24676660       24780933       24985729
 3510.822       24865994       24660004       24652956       24881970       24806498
 3520.4668       24723092       24753012       24611944       24699688
 3528.1826       24931896       25052035       24899205       24748398
 3535.8984       24810800       24762746       24800215       24847481
 3543.6143       24601085       24530184       24590829       24586000
 3551.3301       24765940       24869215       24780869       24781182
 3559.0459       24938107       24863636       24435079       24428295
 3566.7617       24760537       24590325       24467601       24573978
 3574.4775       24527140       24426561       24328740       24175059
 3582.1934       24052968       24086935       24278097       24578173
 3589.9092       24516288       24387201       24434846       24390753
 3597.625       24456255       24478052       24404531       24368934       24299238
 3607.2698       24443761       24627734       24537100       24437558
 3614.9856       24414085       24438161       24609990       24783414
 3622.7014       24457576       24056511       24276212       25015661
 3630.4172       24976481       24228798       24222000       24301823
 3638.1331       24207041       24305489       24413481       24424722
 3645.8489       24403973       24665160       24818892       24571903
 3653.5647       24451608       24548968       24511235       24393514
 3661.2805       24216713       23943685       24020471       24133522
 3668.9963       24130529       23977147       23747193       24435429
 3676.7122       24915818       24449907       24250329       24077298
 3684.428       23840213       23799507       24239561       24333648       24083214
 3694.0728       24000129       23933124       24147563       24368219
 3701.7886       24551984       24347877       24170961       24358338
 3709.5044       24464481       24489198       24160868       23981318
 3717.2202       24064593       24282651       24625508       24726719
 3724.936       24482660       24059532       23418913       23201035       23654342
 3734.5808       24092466       24159631       23823611       23602230
 3742.2966       23605615       24044508       24032949       23795553
 3750.0125       24112180       24243323       24096712       23776544
 3757.7283       23845708       24070067       23798203       23500891
 3765.4441       23757817       24084784       24357039       24396339
 3773.1599       24149539       24247354       24270084       24383977
 3780.8757       24218924       23820842       23903670       24107320
 3788.5916       24021961       23625737       23512544       23556799
 3796.3074       23726851       23732342       23590215       23752302
 3804.0232       23623999       24156481       24397006       23855360
 3811.739       23858150       23732027       23924513       24036411       23863059
 3821.3838       24079751       23745548       23563225       23850650
 3829.0996       23809541       23670088       23771776       23987884
 3836.8154       24181429       24232220       24062265       24003023
 3844.5313       23963997       23651360       23567490       23894362
 3852.2471       24467848       24752550       24123630       23488509
 3859.9629       23140930       23072660       23313111       23519075
 3867.6787       23572363       23809453       23612676       23243329
 3875.3945       23392351       23560295       23590751       23525635
 3883.1104       23355799       23471631       23374513       22930827
 3890.8262       23220303       23501115       23250598       23090020
 3898.542       23242509       23527028       23508569       23594502       23548827
 3908.1868       23461638       23699712       23691794       23519952
 3915.9026       23543846       23456354       23358431       23426903
 3923.6184       23521636       23473985       23381680       23456711
 3931.3342       23523988       23361633       23131551       23275446
 3939.05       23436289       23331918       23278477       23253610       23200525
 3948.6948       23191454       23342092       23247281       23109499
 3956.4106       23262382       23336602       23395022       23519576
 3964.1265       23476629       23254806       23087911       22804787
 3971.8423       22746790       23003254       23091305       23188334
 3979.5581       23269432       23189794       23069954       22985362
 3987.2739       23057699       23147423       23038629       22966100
 3994.9897       23145400       23417581       23313984       23009185
##END=$$ End of the data block
