##TITLE=4,4-Dimethoxytrityl chloride, 95%
##JCAMP-DX=5.00 $$ ACD/DocManager Library v 8.12
##SPECTROMETER/DATA SYSTEM=TravelIR
##DATE=07 Jan 2003 02:12:30
##DATA TYPE=INFRARED SPECTRUM
##DATA CLASS=XYDATA
##ORIGIN=
##OWNER=
##NPOINTS=1738
##FIRSTX=650.09326172
##LASTX=4000.87011719
##MAXX=4000.87011719
##MINX=650.09326172
##MAXY=0.60813129
##MINY=0.01285176
##XFACTOR=1.0000000000
##YFACTOR=1.000000000000000e-9
##FIRSTY=0.30536836
##DELTAX=1.92905974
##XUNITS=1/CM
##YUNITS=ABSORBANCE
##XYDATA=(X++(Y..Y))
  650.0933      305368364      313758165      220880792      146459222
  657.8096      124777347      121316344      123641133      127447337
  665.5259      132278308      141999781      145888239      146232158
  673.2422      151501849      156752869      161914244      168454796
  680.9585      175477386      183484212      192126870      202779993
  688.6748      217196599      236429498      268930316      325946599
  696.3911      415601492      484628737      449578106      364519328
  704.1074      296810746      264657557      263639569      280572802
  711.8237      306106925      323316008      311977059      268263698
  719.54      213273972      171670943      154798254      157280490      175141901
  729.1854      195964918      201545402      207678050      226370454
  736.9017      254159600      298274845      365786076      449373245
  744.618      501718104      471140563      383051217      291003615      220595405
  754.2634      174684376      149939328      140901878      140658170
  761.9797      144323334      150279447      158938110      171835542
  769.696      190468952      217613876      258674860      321486592      411226034
  779.3414      493074536      479083478      374880910      293391973
  787.0577      296337456      335549921      307109058      228348151
  794.774      178253531      176795900      215612784      296984285      393936157
  804.4194      410301358      335951000      253780544      209875688
  812.1357      208216369      227944881      262831837      269319564
  819.8521      245802253      249923646      244093314      232443586
  827.5684      267000943      348498911      418467730      360204726
  835.2847      240063310      159447834      127160057      130609334
  843.001      150666505      158432722      152892977      156923279      140757367
  852.6464       97676657       68417542       56922380       52223809
  860.3627       49840350       47840036       46186164       44944093
  868.079       44313408       44120036       44627130       45595098       46390448
  877.7244       47076788       47961287       49541678       51929571
  885.4407       54282375       56132562       57662286       59386045
  893.157       62845849       70192985       85421667      105472855      106192656
  902.8024       86941063       76760076       73733337       65740287
  910.5187       59836112       58182463       57256050       56955993
  918.235       57419214       58405925       59459921       59990816       60444169
  927.8804       62184233       66618375       72708912       72521582
  935.5967       66914983       64766265       66896439       71746685
  943.313       87023519      100168467       85321479       65335900       59066445
  952.9584       58293615       59462659       61255749       63371964
  960.6747       63947074       63914075       65694563       67820758
  968.391       67888662       68477377       71632341       74268900       74186154
  978.0364       73740199       75198896       77878416       81027023
  985.7527       84809452       89749843       95116690      101966925
  993.469      110247038      118602097      130530804      150716916      160293370
 1003.1144      149334893      146296322      162562221      186545938
 1010.8307      199956611      205378935      221390948      250768185
 1018.547      293621600      350638241      408125997      424789667      380499721
 1028.1924      332742065      323026180      313860923      266079813
 1035.9087      198424131      142154291      108745679       89978062
 1043.625       77760093       69530264       63734129       59320927       55735391
 1053.2704       53365801       52185826       51934872       52431524
 1060.9867       53499181       55062510       57149485       59802502
 1068.703       62455699       64511009       65864190       66758797       68262070
 1078.3484       71197800       73677719       71980424       67284890
 1086.0647       64348727       64223520       65367728       67003384
 1093.781       69085747       71658447       74656844       77822857       81008516
 1103.4264       84571593       88976257       94737694      102553658
 1111.1427      113614395      130652443      154662326      174059585
 1118.859      171429977      157836795      152573913      144279480      128680423
 1128.5044      120663039      121052153      124509394      130152389
 1136.2207      137780592      147242054      159476534      177106962
 1143.937      205065280      243247807      264691949      247033149      218968838
 1153.5824      207884610      213233456      225980923      238440946
 1161.2987      243310034      242034301      245404795      256649613
 1169.015      276168942      309360236      362389594      443052024      544541299
 1178.6604      597757876      519024909      384336054      292946279
 1186.3767      227829307      165295228      125370145      107271127
 1194.093       99149138       96723445       97645223      101517968      109215915
 1203.7384      122599691      140598342      155443221      159291148
 1211.4547      158189952      163235441      173232809      179015294
 1219.171      178361490      176888645      180236682      190161496      204448849
 1228.8164      220534205      239174798      262314916      289737761
 1236.5327      320298195      354231358      391301215      432420641
 1244.249      482972056      546041071      601628602      608131289      556907058
 1253.8944      474177688      385896683      307231784      240687817
 1261.6107      189124957      154765964      132608488      117260747
 1269.327      106852241      101021573       99418864      101830572      107391365
 1278.9724      114926837      123494051      131333828      136474535
 1286.6887      142291978      155578718      172241420      174490944
 1294.405      157762870      141563401      142247826      162646100      197524160
 1304.0504      220952958      206619531      181171745      154300407
 1311.7667      119167738       95928289       85238211       79024032
 1319.483       73744714       66206023       59149727       53796925       49932182
 1329.1284       46999142       44704162       42988617       42142585
 1336.8447       42059980       42438593       42918548       43912575
 1344.561       46068437       48917934       51520500       53535990       55367496
 1354.2064       57441916       59303164       60394723       61339322
 1361.9227       63011773       65124311       66051818       65517366
 1369.639       63929901       61423197       58359541       54878041       51704697
 1379.2844       49223773       47385063       46215639       45828890
 1387.0007       46196796       46678163       47673408       50273124
 1394.717       54586247       58829710       63118853       67654721       71466543
 1404.3624       76641425       83901688       94549932      113734312
 1412.0787      138234466      143384829      123623773      100762621
 1419.795       82718886       75114183       75732686       79044379       83775923
 1429.4404       90753384       98696411      107718177      120775826
 1437.1567      145924285      181601644      236308560      275201142
 1444.873      260907978      260242432      274869055      246391609      199381158
 1454.5184      182448477      206086665      281543285      302472442
 1462.2347      241158023      196650580      179794088      150763065
 1469.951      122610547      110285781      109816566      115175433      122845195
 1479.5964      127434567      132659167      143802568      160010129
 1487.3127      167175204      155789047      142823771      143746853
 1495.0291      159752145      188823327      223685637      264603466
 1502.7454      314957976      363125026      423713744      449368745
 1510.4617      362467140      234023973      149590522      106607847
 1518.178       83972752       74610330       66096641       57790369       51746387
 1527.8234       46390135       43136351       42558696       42699408
 1535.5397       41460909       40929407       40981386       39549239
 1543.256       38722172       38987275       39642882       41042734       42431481
 1552.9014       43902099       45963094       48643965       53702004
 1560.6177       56973301       58957603       64622335       70935935
 1568.334       77212945       86083964       98798901      117611520      142671764
 1577.9794      156207025      155219972      144185394      121467866
 1585.6957      101315789       94315641       97134903      105408557
 1593.412      116638429      129944950      144207284      160259277      180997968
 1603.0574      206983522      230529532      240328655      221325949
 1610.7737      173777282      122861035       89831211       70130616
 1618.49       57617307       50875843       46309073       41918159       38165934
 1628.1354       35317674       33034910       31973448       32081410
 1635.8517       32303795       31573642       31260341       31858634
 1643.568       32871485       33958130       34246393       33555668       32742031
 1653.2134       30948572       28173182       26317811       24926456
 1660.9297       23950620       22936326       21605704       20407978
 1668.646       19381240       18210877       17371533       17079290       16745083
 1678.2914       16616173       16828878       17004721       16978407
 1686.0077       16331311       15945712       15917774       15657019
 1693.724       15413309       15246443       14693758       14515549       14266179
 1703.3694       13760606       13815312       13840972       13815383
 1711.0857       13945834       14073416       14302311       14679202
 1718.802       14948570       14781479       14604121       14444420       14178731
 1728.4474       14096725       14102345       14205790       14751063
 1736.1637       14805019       14685011       14893208       14936024
 1743.88       15016442       15103650       15105421       15121896       15174950
 1753.5254       15067014       15261383       15760133       15937362
 1761.2417       16442820       17115317       17450720       18312955
 1768.958       19372331       19867536       20382544       20519789       20423613
 1778.6034       20394703       19975966       19089930       18153897
 1786.3197       17377254       16839324       16637137       16669612
 1794.036       16675178       16559977       16272932       15946491       15678061
 1803.6814       15407044       15381516       15550125       15950587
 1811.3977       16584905       17142922       17779531       18436953
 1819.114       18551463       17921705       17169150       16945057       16751438
 1828.7594       16518690       16536890       16424334       16363490
 1836.4757       16244791       16156824       16122585       16038049
 1844.192       16187541       15933564       15573875       15484180       15285379
 1853.8374       15262002       15570225       15883189       16094968
 1861.5537       16405692       16838059       17194152       17534850
 1869.27       18020352       18307989       18410325       18608510       18735051
 1878.9154       18810909       19419860       20873930       23046717
 1886.6317       24784433       24851967       23910992       23508379
 1894.348       24370300       26210384       29210867       32927066       34968175
 1903.9934       34358989       32184746       29250326       25801344
 1911.7097       22820659       20880567       19912440       20020584
 1919.426       20317096       20500325       20966675       21424882       21747557
 1929.0714       21116836       19564558       18258559       17431717
 1936.7877       16972052       16792819       16866947       17333094
 1944.504       17849417       18070968       18277133       18445177       18667269
 1954.1494       18898135       19052260       19285731       19676508
 1961.8657       20663027       21955842       22628304       22200225
 1969.582       21355901       20536371       19741885       19621680       19752253
 1979.2274       20166744       20954370       21337969       21698723
 1986.9437       21755749       21356143       20878078       20540932
 1994.66       20083511       19524701       19696780       19840384       19679058
 2004.3054       19675503       19674404       19751796       19951260
 2012.0217       20040508       20102357       20675208       21513887
 2019.738       22241939       22835929       23219666       23880659       24736213
 2029.3834       25426429       26122494       26581226       27078498
 2037.0997       27428787       27299866       27455039       27693462
 2044.816       27597448       27007576       26210800       25456080       24488159
 2054.4609       23748305       23292718       22544876       21794483
 2062.1768       21202886       20762086       20418512       20004107
 2069.8926       19902531       19751970       19371811       19201461
 2077.6084       19261921       19202529       19086199       18937433
 2085.3242       18701632       18492790       18369408       18158006
 2093.04       17780524       17484481       17361183       17472314       17347924
 2102.6848       17108724       17284898       17480355       17592151
 2110.4006       17637610       17344048       17331699       17351814
 2118.1165       17027020       17026844       17104955       17048197
 2125.8323       16926164       16757812       16630391       16591610
 2133.5481       16765684       17188059       17397473       17320871
 2141.2639       17607432       17550778       17361017       17678346
 2148.9797       17679583       17706804       18026607       18017037
 2156.6956       17986523       18786900       19497886       19295886
 2164.4114       19130850       19251971       19201666       18746046
 2172.1272       18328741       18420598       18428212       18381007
 2179.843       18521089       18619906       18694486       18691741       18762192
 2189.4878       18860243       18855361       18868076       19023027
 2197.2036       18846041       18368391       18194059       18587759
 2204.9194       19130800       19170387       18888528       18579954
 2212.6353       18343147       18223606       18205049       18201042
 2220.3511       18379958       18429231       18333377       18373698
 2228.0669       18334728       18365474       18532416       18666031
 2235.7827       18787082       18979317       18812567       18571759
 2243.4985       18414158       18384639       18876782       18983938
 2251.2144       18688444       18593235       18621666       18723607
 2258.9302       18719282       18799307       18802561       18578455
 2266.646       18623421       18889109       18817829       18771535       19036846
 2276.2908       19094659       19170519       19368064       19352941
 2284.0066       19390997       19631417       19861231       20051572
 2291.7224       20098446       20137426       20271230       20314664
 2299.4382       20135663       19913202       19759569       19526634
 2307.1541       19452468       19576889       19734029       19783631
 2314.8699       19613937       19479677       19624503       19636029
 2322.5857       19556154       19477153       18968746       18562740
 2330.3015       18337132       18073954       18057153       18212741
 2338.0173       18425537       18534906       18568894       18652273
 2345.7332       18767251       18506685       18043920       18130807
 2353.449       18496031       18759148       19131333       19223919       19316202
 2363.0938       19476255       19395012       19129403       18962370
 2370.8096       19030146       19006543       18877937       18809298
 2378.5254       18797228       18866127       19110812       19288093
 2386.2412       19280514       19376297       19586390       19619431
 2393.957       19500041       19521857       19664831       19654445       19498538
 2403.6018       19477908       19624241       19871013       20156758
 2411.3176       20401932       20534981       20657882       20808307
 2419.0334       20840038       20922171       21017790       21371197
 2426.7493       21910520       22074256       22129247       22111880
 2434.4651       21970758       21868117       21721495       21559143
 2442.1809       21351226       21052560       20784676       20636993
 2449.8967       20627996       20687016       20768262       20751186
 2457.6125       20648248       20639636       20731775       20775126
 2465.3284       20731056       20852944       21076046       21201396
 2473.0442       21277504       21221500       21131335       21254724
 2480.76       21387510       21491684       21797439       22078365       22233095
 2490.4048       22504119       22651838       22626270       22738010
 2498.1206       22773417       22745254       22781672       22798663
 2505.8364       22800967       22588925       22127377       21799164
 2513.5522       21684026       21642512       21732049       21648174
 2521.2681       21491159       21437762       21211073       21216696
 2528.9839       21557616       21841146       22077657       22193352
 2536.6997       22222811       22598444       23325242       23811551
 2544.4155       24053983       24165966       24245853       24583528
 2552.1313       24894387       24980852       24669262       24232170
 2559.8472       23950823       23560669       23149995       22778787
 2567.563       22229914       21721637       21564689       21627799       21708589
 2577.2078       21707814       21827772       22123860       22178855
 2584.9236       21946765       21920279       22098120       22299860
 2592.6394       22437746       22323975       22034841       21806158
 2600.3552       21650150       21441441       21244338       21122880
 2608.071       21113474       21068214       20924760       20853532       20826146
 2617.7158       20836689       20909196       20913508       20637790
 2625.4316       20331027       20278668       20313334       20313080
 2633.1475       20242607       20279601       20240046       19820614
 2640.8633       19518796       19500064       19362776       19193113
 2648.5791       19101514       19051423       19060438       19095810
 2656.2949       19119874       19085445       19026000       18984737
 2664.0107       18998317       19045388       19010000       18890677
 2671.7266       18829225       18928738       19077906       19163076
 2679.4424       19240243       19234087       19265326       19390503
 2687.1582       19521125       19637058       19604575       19564735
 2694.874       19530483       19496772       19548411       19625481       19697310
 2704.5188       19775555       19899843       19984232       20035254
 2712.2346       20164674       20369345       20520683       20664338
 2719.9504       20778490       20748068       20799184       20920284
 2727.6663       20802489       20559030       20475201       20562256
 2735.3821       20704197       20793442       20783635       20780034
 2743.0979       20904103       21083200       21210689       21337114
 2750.8137       21578047       21795936       21907669       21979196
 2758.5295       21929637       21798281       21676127       21493437
 2766.2454       21292720       21207793       21138627       21058142
 2773.9612       21081014       21209184       21365728       21465316
 2781.677       21662163       21924106       21963174       21908239       21942176
 2791.3218       22024082       22095790       22226937       22484029
 2799.0376       22664359       22739418       22869112       23098577
 2806.7534       23396393       23707986       24054041       24448916
 2814.4692       24825975       25170622       25598750       26218314
 2822.1851       27198341       28397154       29659659       31151708
 2829.9009       32953989       35211440       38234878       42651165
 2837.6167       48697829       54530855       55674590       49523223
 2845.3325       39911080       32580934       28973188       27447049
 2853.0483       26788803       26390377       25892777       25336368
 2860.7642       24880597       24591772       24422163       24400134
 2868.48       24471270       24588613       24822528       25141681       25657222
 2878.1248       26321610       26948592       27785363       29084576
 2885.8406       30716270       32106549       32923080       33429667
 2893.5564       34364119       36384139       38896013       40474102
 2901.2722       40295836       39167866       38639355       38887296
 2908.988       38613565       37573915       36761716       36516353       36614694
 2918.6328       37129395       38215015       39711442       41952129
 2926.3486       45679163       51068831       57249311       61427400
 2934.0645       60271919       54900538       49828317       46549898
 2941.7803       44073291       42345863       41797355       42283185
 2949.4961       43585915       45708146       48159327       50126102
 2957.2119       51494408       52924506       54310985       55217724
 2964.9277       55953726       56347150       55647645       53294141
 2972.6436       49197774       44006672       38907073       35052106
 2980.3594       32761283       31496029       30766690       30442987
 2988.0752       30500557       30695993       31052502       31947244
 2995.791       33216294       34721550       36840405       39451748       42105287
 3005.4358       44527087       46300914       47246523       47716506
 3013.1516       47160313       44813309       41374821       38144480
 3020.8674       35724830       34033861       32930851       32373533
 3028.5833       32663409       33510242       34254760       34781951
 3036.2991       35001758       34862131       34408260       33661369
 3044.0149       32955196       32966066       33917412       35339881
 3051.7307       36080159       35719242       34787718       33830632
 3059.4465       33821534       34845304       35996716       36500432
 3067.1624       36173478       35440523       34580335       33478305
 3074.8782       32246303       31038903       29753989       28476873
 3082.594       27412472       26743619       26161607       25475686       24889883
 3092.2388       24546400       24634264       24911372       25075298
 3099.9546       25077088       24946844       24641747       24083128
 3107.6704       23513207       23204327       23092495       22953533
 3115.3862       22773789       22737870       22792313       22702115
 3123.1021       22623915       22431850       22119574       21916950
 3130.8179       21683976       21672180       21704908       21579349
 3138.5337       21594666       21597508       21586413       21595327
 3146.2495       21542799       21614216       21723760       21732846
 3153.9653       21643482       21460867       21282915       21144144
 3161.6812       21110019       21003054       20660507       20419866
 3169.397       20426953       20467712       20388935       20240355       20215437
 3179.0417       20228641       20038530       19925568       19982366
 3186.7576       19883806       19688830       19554099       19639755
 3194.4734       19700376       19556748       19629328       19749554
 3202.1892       19719653       19630341       19368974       19242676
 3209.905       19364685       19381275       19236647       19121056       19279370
 3219.5498       19347379       19123385       18927196       18797264
 3227.2656       18774347       18702256       18612746       18565210
 3234.9814       18431220       18313229       18306684       18290769
 3242.6973       18300172       18305132       18241853       18272573
 3250.4131       18329808       18398382       18286498       18005777
 3258.1289       17919000       17927647       17871682       17763922
 3265.8447       17706377       17684286       17665287       17686715
 3273.5605       17717037       17768824       17663764       17626081
 3281.2764       17721178       17643956       17451182       17355360
 3288.9922       17410159       17358927       17320238       17370218
 3296.708       17320212       17300347       17373044       17308865       17197089
 3306.3528       17269578       17343028       17367382       17311221
 3314.0686       17129220       17073208       17027313       16978543
 3321.7844       16930088       16810516       16939053       16983742
 3329.5002       16839821       16887262       16896268       16798653
 3337.2161       16774543       16741093       16722148       16811915
 3344.9319       16816579       16656151       16486431       16464047
 3352.6477       16575230       16618786       16563348       16481783
 3360.3635       16447125       16468333       16406367       16294394
 3368.0793       16266203       16378211       16463662       16478352
 3375.7952       16450059       16226331       16053742       16060209
 3383.511       16139880       16282005       16235076       15989067       16080445
 3393.1558       16273567       16138868       16092308       16217224
 3400.8716       16283235       16185438       15976012       15796540
 3408.5874       15822336       15912035       15827499       15726138
 3416.3032       15819388       15922749       15843121       15907340
 3424.019       15902512       15599769       15475578       15609395       15633058
 3433.6638       15721275       15745914       15508055       15515368
 3441.3796       15596716       15550150       15510187       15501813
 3449.0955       15467764       15437886       15381563       15471202
 3456.8113       15721273       15671393       15487169       15429444
 3464.5271       15570006       15602802       15386583       15341923
 3472.2429       15496366       15494042       15358930       15278156
 3479.9587       15255149       15389355       15312355       15151411
 3487.6746       15362187       15422175       15137064       14922259
 3495.3904       14823519       14793739       14894683       14971282
 3503.1062       14930199       14855581       14837689       15006526
 3510.822       15086313       14859159       14888398       14923720       14582737
 3520.4668       14501873       14602075       14683752       14921653
 3528.1826       14918131       14684861       14476943       14336383
 3535.8984       14430864       14477608       14365497       14319343
 3543.6143       14332014       14372642       14499201       14477720
 3551.3301       14442619       14532805       14296247       14060162
 3559.0459       14086718       14035639       14059869       14340550
 3566.7617       14509735       14352961       14118696       13997829
 3574.4775       13995268       14074349       14112573       14103032
 3582.1934       14185816       14063916       14109381       14614178
 3589.9092       14437584       13915760       14058265       14298704
 3597.625       14261873       14369851       14356494       14181810       14006635
 3607.2698       14010046       14214898       14098210       14065099
 3614.9856       14006493       13800601       14228187       14499416
 3622.7014       14147990       13892340       13691559       14093072
 3630.4172       14447205       14086738       14114010       14083368
 3638.1331       13930700       13928410       14020115       14064128
 3645.8489       14017009       14354078       14669299       14355008
 3653.5647       13808698       13909706       14113842       13840492
 3661.2805       13797496       13981145       14169376       14085932
 3668.9963       14163838       14427589       13842098       13883912
 3676.7122       14265416       13753192       13720842       13722153
 3684.428       13395343       13332409       13752733       14116812       13919812
 3694.0728       13762566       14010657       14084421       14011701
 3701.7886       14346207       14387426       14028926       13775126
 3709.5044       13836121       14120867       14182203       13787514
 3717.2202       13389588       13394527       13563103       13615050
 3724.936       13423382       13431315       13167246       12851764       12996302
 3734.5808       13230616       13616028       13494440       13074924
 3742.2966       12981830       14001422       13972675       12907506
 3750.0125       13229098       13670838       13726009       13610223
 3757.7283       13490144       13737496       13731678       13292796
 3765.4441       13172490       13166130       13541049       13878188
 3773.1599       13559847       13415693       13455545       13727620
 3780.8757       13672167       13317655       13306942       13307848
 3788.5916       13352349       13481105       13406715       13253174
 3796.3074       13378740       13332766       13277698       13892520
 3804.0232       13767105       13618968       13926168       13489950
 3811.739       13182582       13180802       13724372       13912283       13503280
 3821.3838       13993724       13895350       13398502       13570934
 3829.0996       13729292       13857195       13879383       13760802
 3836.8154       13902186       14182606       14263951       14151458
 3844.5313       13955286       13806133       13825380       13707410
 3852.2471       13973461       14776329       14339706       13699638
 3859.9629       13724404       13882539       14178007       14239275
 3867.6787       13827178       14012579       14129563       13729000
 3875.3945       13805968       13927078       14272689       14482349
 3883.1104       13867652       13822689       14016993       13474949
 3890.8262       13585245       13894283       13661929       13522306
 3898.542       13550377       13647889       13781359       14099324       13964493
 3908.1868       13639225       13642252       13624579       13537937
 3915.9026       13654456       13775949       13823328       13695659
 3923.6184       13584288       13692443       13563656       13352272
 3931.3342       13379138       13488630       13457648       13524628
 3939.05       13561327       13646404       13910093       13867834       13853007
 3948.6948       14105631       14244445       14229573       14242738
 3956.4106       14264063       14299720       14467467       14347345
 3964.1265       14026616       14032858       13984766       13805362
 3971.8423       13966103       14120309       14081230       14197071
 3979.5581       14348969       14240342       13975575       13996094
 3987.2739       14028802       14003973       14184254       14294104
 3994.9897       14335839       14422654       14463838       14469219
##END=$$ End of the data block
