##TITLE=1,2-Dibromotetrafluorobenzene, 97+%
##JCAMP-DX=5.00 $$ ACD/DocManager Library v 8.12
##SPECTROMETER/DATA SYSTEM=TravelIR
##DATE=29 May 2003 11:58:20
##DATA TYPE=INFRARED SPECTRUM
##DATA CLASS=XYDATA
##ORIGIN=
##OWNER=
##NPOINTS=1738
##FIRSTX=650.09326172
##LASTX=4000.87011719
##MAXX=4000.87011719
##MINX=650.09326172
##MAXY=0.75005591
##MINY=-0.00670389
##XFACTOR=1.0000000000
##YFACTOR=1.000000000000000e-9
##FIRSTY=0.01313468
##DELTAX=1.92905974
##XUNITS=1/CM
##YUNITS=ABSORBANCE
##XYDATA=(X++(Y..Y))
  650.0933       13134681       12898955       11761796       10894037
  657.8096       10723541       10285152       10342146       10351336
  665.5259       10777338       12772013       12186270       10802220
  673.2422       11022019       10803934       10536381       10894084
  680.9585       10881366       10899575       10603311       10692541
  688.6748       11501604       11442016       11134099       11862004
  696.3911       12640120       12781320       12702006       12722698
  704.1074       13035926       13368019       14000750       14638238
  711.8237       14997344       15146257       14687385       13801842
  719.54       13324291       13575113       13720245       14048172       14565877
  729.1854       14864278       15725942       16776204       18154573
  736.9017       19973371       21707863       23524510       25533270
  744.618       26739936       25743218       25054261       26485838       29066388
  754.2634       31366251       31751484       31373408       31617280
  761.9797       32503694       33607081       35366386       37942767
  769.696       40928788       44692576       49547479       55953044       63897297
  779.3414       73770560       85834287      100500174      118558213
  787.0577      140841693      169607744      208333790      259760052
  794.774      322006434      394873440      480164945      551152945      555805683
  804.4194      481707782      367682338      255680144      171561867
  812.1357      120650493       92195533       75415984       64728796
  819.8521       57301201       52062057       48925146       48640899
  827.5684       51412053       56368832       62521800       70415221
  835.2847       82528017      102004826      135684386      181354195
  843.001      238385126      336636007      465175450      509085834      414813787
  852.6464      270276815      152139232       85728295       57289839
  860.3627       44206038       35909384       29244194       23343021
  868.079       18547961       14974603       12392162       10788009        9842185
  877.7244        9262539        8870747        8566857        8338694
  885.4407        8005246        7716861        7474293        7220155
  893.157        6927240        6492718        6052096        5744407        5544478
  902.8024        5448173        5371562        5218563        5007507
  910.5187        4713325        4363968        4142664        4113034
  918.235        4066559        3967543        3976577        4104773        4225501
  927.8804        4374349        4602834        4760711        4971937
  935.5967        5198316        5292265        5440110        5624366
  943.313        5737398        5905144        6216355        6570128        6762132
  952.9584        6943017        7162230        7519640        7881286
  960.6747        8230948        8614193        8993826        9530551
  968.391       10399066       11532409       12871669       14397391       15749965
  978.0364       16446980       16206427       15571982       15040403
  985.7527       14467091       13621299       12760838       12009552
  993.469       11903660       12683840       14200364       16017281       18123800
 1003.1144       20561703       23906210       28222537       33896636
 1010.8307       40335145       46827555       52315127       57185389
 1018.547       62118314       68516262       77877454       93425333      122236155
 1028.1924      173400551      245957002      328643888      422695994
 1035.9087      420408040      320167840      209656596      128705800
 1043.625       80936074       60959842       51554859       45917999       40599041
 1053.2704       35911147       31580821       28307555       25281798
 1060.9867       22590714       20009704       18099463       16972806
 1068.703       16840631       17111676       17094105       16607361       16247654
 1078.3484       16992068       18989939       21306623       23253031
 1086.0647       25503350       28605776       31364173       31994678
 1093.781       31000754       30377721       31409018       34008212       37830383
 1103.4264       43659478       53968929       71495503       96578367
 1111.1427      125643075      151568517      167088673      171650067
 1118.859      168448508      157296047      136875570      109064527       79918347
 1128.5044       56211725       40312055       30306447       23601886
 1136.2207       18670052       14979567       12350041       10516445
 1143.937        9213123        8101626        7064070        6249081        5569348
 1153.5824        5008380        4473500        4018966        3770027
 1161.2987        3589914        3476342        3375762        3200140
 1169.015        3073200        2956791        2781743        2529069        2258029
 1178.6604        2039936        1899428        1810770        1798530
 1186.3767        1856279        1973978        2117549        2343522
 1194.093        2741432        3031271        2973559        2685544        2395025
 1203.7384        2210917        2064606        1967725        1873983
 1211.4547        1750518        1615554        1475982        1580821
 1219.171        1891121        2171926        2425854        2764062        3245553
 1228.8164        3929635        4776751        5779862        6931360
 1236.5327        7822298        7845421        7105151        6411026
 1244.249        6086442        5951125        5922752        6005043        6353077
 1253.8944        7248052        8965180       11001356       11997651
 1261.6107       11771915       12142914       15053518       22466231
 1269.327       34915935       47419876       50995894       42500384       28423794
 1278.9724       16980404       11199274        9216604        8550264
 1286.6887        8052571        7381196        6743507        6276369
 1294.405        6033471        6129279        6506161        7192101        8167203
 1304.0504        9766087       12688052       17605184       22776414
 1311.7667       23805765       19243477       13001612        8980463
 1319.483        7497957        7375145        7901755        8716559        9537247
 1329.1284       10440870       11533085       12847809       14766625
 1336.8447       17716337       21733200       25317458       25519613
 1344.561       24002086       25242163       30807545       37605353       39436303
 1354.2064       32986321       22648986       14824175       11196482
 1361.9227        9977593        9210788        8577268        8280630
 1369.639        7945509        7720002        7738072        7549806        7520217
 1379.2844        7787002        8170869        8718071        9547939
 1387.0007       10221723       10244722       10460691       11560530
 1394.717       12935211       14182599       16101938       18628199       21444090
 1404.3624       25374230       27594952       27654622       27638977
 1412.0787       28401189       30303903       33726119       39086908
 1419.795       45827448       49087878       54614410       62357776       69254361
 1429.4404       79024866       88973649       97029008      108212382
 1437.1567      130069941      145566121      162681431      191757292
 1444.873      229753375      281503558      352978319      410152853      459532320
 1454.5184      519313037      571106434      677051961      750055909
 1462.2347      701731622      569258928      441049635      344843596
 1469.951      260113418      186261728      129298016      110393286      110216923
 1479.5964      122984834      151279718      188674927      228961200
 1487.3127      270970076      304506749      338807434      372061759
 1495.0291      407314092      465684205      520335376      510871768
 1502.7454      435080767      336886704      221562266      136306316
 1510.4617       97244598       74656673       65708794       60384281
 1518.178       53679556       49384039       44540256       39636482       37775982
 1527.8234       36344878       36095187       37377328       38760744
 1535.5397       38847096       37777577       33087134       25404226
 1543.256       20802373       17709514       16412618       16612757       16507205
 1552.9014       15822861       14650224       14380741       14399578
 1560.6177       11379383       10951054       11994845       13095435
 1568.334       14161630       14478735       13659126       12534225       10118843
 1577.9794        7268549        6215379        6066850        6188782
 1585.6957        6470534        7021930        7888996        8840783
 1593.412        9742099       10626483       12018911       14283171       17414993
 1603.0574       21087393       24800561       28091537       31153029
 1610.7737       33861857       35482910       34659393       30134058
 1618.49       22711491       14924020        8321294        4637806        3138190
 1628.1354        2479048        1783049        1229858         602824
 1635.8517        -952318       -3143774       -4658299       -5769363
 1643.568       -6091214       -5704917       -5641494       -5295563       -3869620
 1653.2134       -1728942        -954903        -710489        -404330
 1660.9297         -34293         300599         441292         676402
 1668.646         999405        1100937        1100726        1300153        1476628
 1678.2914        1524423        1911395        2337506        2549109
 1686.0077        2468967        2200216        2023715        1974922
 1693.724        2003002        2063058        1980630        1957163        1860689
 1703.3694        1656673        1688493        1770492        1707259
 1711.0857        1701580        1685781        1656463        1756311
 1718.802        1650251        1396062        1301203        1338484        1428794
 1728.4474        1583808        1827934        1968909        1908216
 1736.1637        1636325        1409465        1286386        1149746
 1743.88        1049028        1109608        1173167        1133662        1087307
 1753.5254        1174153        1301761        1288676        1252581
 1761.2417        1300905        1297823        1190749        1163489
 1768.958        1282083        1357217        1384331        1256682        1239557
 1778.6034        1394590        1500629        1521905        1590123
 1786.3197        1680898        1698112        1723815        1858233
 1794.036        2040581        2080040        2183190        2341684        2406365
 1803.6814        2534016        2706796        2653904        2448103
 1811.3977        2315514        2077796        1775512        1618398
 1819.114        1573944        1528153        1504527        1558097        1664763
 1828.7594        1931380        2250290        2342212        2539924
 1836.4757        2754599        2715061        2584751        2438266
 1844.192        2233457        1963386        1835547        1842787        1824087
 1853.8374        1874849        1923304        1912482        1945428
 1861.5537        1956264        1939757        1850834        1986696
 1869.27        2383272        2516818        2573838        2530839        2237899
 1878.9154        1904531        1739499        1774743        1635753
 1886.6317        1286319        1255748        1523448        1530164
 1894.348        1404383        1420734        1385845        1316194        1313148
 1903.9934        1289957        1288641        1417954        1649871
 1911.7097        1701678        1702203        1798797        1927040
 1919.426        2116266        2171958        2152809        2089204        2007973
 1929.0714        2085605        2126870        2112370        2287457
 1936.7877        2230993        2043463        2171651        2373217
 1944.504        2293353        2007891        1652295        1662411        2088979
 1954.1494        2160814        1738661        1351834        1924658
 1961.8657        2690830        2979584        2942583        2794528
 1969.582        3227306        3544217        3748043        3960984        3524017
 1979.2274        2938235        2719283        2246059        1797771
 1986.9437        2014589        2189119        1987479        1926252
 1994.66        2059111        1944718        1569591        1421874        1373532
 2004.3054        1061413        1131433        1328654        1311874
 2012.0217        1741725        2063665        2168246        2027137
 2019.738        1702958        1652356        1619612        1518931        1561871
 2029.3834        1588806        1587537        1777592        1850192
 2037.0997        1767127        1929461        2470435        2531962
 2044.816        2364065        2104547        1868645        1914287        1893952
 2054.4609        2239806        2282727        2139155        2345975
 2062.1768        2450907        2528038        2410073        2163085
 2069.8926        2452943        2974375        3226716        3234636
 2077.6084        2986190        2723510        2528137        2082486
 2085.3242        1615976        1560897        1702461        1688304
 2093.04        1518336        1576240        1695266        1584184        1356514
 2102.6848        1387987        1473263        1168604         947385
 2110.4006        1055536        1064878         981467        1112591
 2118.1165        1243786        1380447        1570394        1636880
 2125.8323        1587363        1734556        1932223        1838895
 2133.5481        1708769        1822400        2165502        2298165
 2141.2639        2212018        2043979        2010350        2257010
 2148.9797        2227967        2036897        1967511        1652085
 2156.6956        1418356        1563817        1833310        2035695
 2164.4114        1727142        1785249        2532465        2925044
 2172.1272        2207810        1743111        2473037        2790296
 2179.843        2405242        1995730        2578652        3012709        2855556
 2189.4878        3308496        3347971        2709658        2193430
 2197.2036        1941083        1876123        1765295        1739101
 2204.9194        1832044        1700895        1558993        1651798
 2212.6353        1737767        1489230        1603920        1703052
 2220.3511        1571598        1722905        1770046        1878880
 2228.0669        2217577        2452710        2469563        2610091
 2235.7827        2770528        2762488        2416098        2229120
 2243.4985        2327738        2337004        2140384        1934017
 2251.2144        1951223        1817577        1887720        1919137
 2258.9302        1743090        1738209        1716993        1979700
 2266.646        2231683        1953426        1744110        1656575        1517355
 2276.2908        1574922        1633804        1529021        1429545
 2284.0066        1674750        2025288        2169746        2316657
 2291.7224        2410596        2541178        2673082        2720106
 2299.4382        3070023        3602521        3851530        3759230
 2307.1541        3458898        3001483        2489089        2064737
 2314.8699        1828304        1623550        1290235        1078099
 2322.5857        1092183        1111152         977995        1012708
 2330.3015        1300856        1388186        1250651        1157045
 2338.0173        1084279        1146754        1364523        1302668
 2345.7332        1198347        1328739        1506473        1578085
 2353.449        1560270        1537777        1431032        1391660        1480193
 2363.0938        1605897        1821275        2018237        2089865
 2370.8096        2153201        2454760        2684370        2648147
 2378.5254        2725764        2610016        2478770        2620967
 2386.2412        2596153        2394676        2282280        2169934
 2393.957        1914427        1642925        1425429        1189819        1046975
 2403.6018        1002828         949090         977497         948449
 2411.3176         890320         984998        1051881         902839
 2419.0334         744386         640289         550028         554892
 2426.7493         686489         817543         744079         656558
 2434.4651         659316         664205         681765         665599
 2442.1809         697222         861558         810369         671752
 2449.8967         800312         887562        1008325        1243195
 2457.6125        1244655        1202717        1105863         927688
 2465.3284        1008418        1068764         978368         883762
 2473.0442         790584         630105         483949         514537
 2480.76         442725         392312         528716         669162         766646
 2490.4048         819392         986596        1130431        1333778
 2498.1206        1608791        1661279        1595356        1468731
 2505.8364        1447938        1460014        1443796        1471269
 2513.5522        1425688        1497144        1748712        1954617
 2521.2681        1978628        1952807        2181987        2482418
 2528.9839        2728982        3188648        3689175        4062090
 2536.6997        4154470        4067020        3948223        3551533
 2544.4155        3240486        3062249        2571524        1984903
 2552.1313        1650671        1440747        1274956        1205861
 2559.8472        1030476        1020790        1014200         821612
 2567.563         991868        1264223        1213375        1296831        1792827
 2577.2078        2123873        2192832        2266303        2149441
 2584.9236        1930208        1807774        1714482        1718217
 2592.6394        1606164        1298947        1029999         881382
 2600.3552         859078         813229         780486         773827
 2608.071         810523         902730         964965         974841         992851
 2617.7158         961507         755483         626233         487663
 2625.4316         292905         153973         -87878        -243511
 2633.1475        -334786        -444620        -383996        -391082
 2640.8633        -508822        -479599        -383717        -313246
 2648.5791        -259649        -214080        -329909        -593037
 2656.2949        -811851        -913146       -1022379       -1211268
 2664.0107       -1214861       -1123957       -1259001       -1454637
 2671.7266       -1471788       -1452835       -1513598       -1662202
 2679.4424       -1835645       -1862093       -1748557       -1724996
 2687.1582       -1871185       -1915877       -1887520       -1927665
 2694.874       -1934611       -1982694       -1987094       -2030662       -2146816
 2704.5188       -2095639       -2042775       -2009182       -1962717
 2712.2346       -1987171       -1984274       -1907636       -1822905
 2719.9504       -1747937       -1755342       -1844986       -1863147
 2727.6663       -1910958       -1959899       -1982008       -2009706
 2735.3821       -1929794       -2006044       -2251737       -2349999
 2743.0979       -2365693       -2390009       -2439097       -2544014
 2750.8137       -2700830       -2803090       -2746658       -2728393
 2758.5295       -2808558       -2909691       -2853292       -2720107
 2766.2454       -2801892       -2861734       -2855003       -2928393
 2773.9612       -2998565       -3043430       -3067333       -3121502
 2781.677       -3223844       -3184531       -3183563       -3266966       -3237129
 2791.3218       -3250380       -3176453       -3069033       -2924661
 2799.0376       -2690597       -2675137       -2767369       -2768563
 2806.7534       -2858476       -3151936       -3363687       -3321866
 2814.4692       -3306757       -3419532       -3520132       -3584879
 2822.1851       -3549782       -3522993       -3521263       -3515071
 2829.9009       -3599801       -3649605       -3611147       -3468267
 2837.6167       -3416165       -3539586       -3540729       -3594966
 2845.3325       -3803782       -3874618       -3840309       -3896692
 2853.0483       -3948984       -3857788       -3702513       -3524319
 2860.7642       -3424716       -3467803       -3479390       -3378904
 2868.48       -3217794       -3072838       -3140025       -3212182       -3134537
 2878.1248       -2975185       -2755369       -2582975       -2457770
 2885.8406       -2502975       -2678528       -2862787       -3128158
 2893.5564       -3301042       -3388739       -3639569       -3799084
 2901.2722       -3875758       -3995801       -3941135       -3933051
 2908.988       -4086453       -4148881       -4301622       -4650573       -4843865
 2918.6328       -4852297       -4878281       -4867568       -4734954
 2926.3486       -4626288       -4839285       -5060763       -4974430
 2934.0645       -4902344       -4798353       -4601140       -4466254
 2941.7803       -4587091       -4679949       -4572392       -4455946
 2949.4961       -4375698       -4520296       -4520229       -4201078
 2957.2119       -3994837       -3873043       -3746227       -3763754
 2964.9277       -3619815       -3520503       -3596229       -3577440
 2972.6436       -3648136       -3699470       -3610446       -3512580
 2980.3594       -3586886       -3650839       -3510576       -3261318
 2988.0752       -3070500       -3079430       -3195466       -3098571
 2995.791       -2966189       -3143094       -3123529       -2984818       -3123460
 3005.4358       -3197791       -3088426       -3054681       -3263485
 3013.1516       -3398651       -3553538       -3916819       -3933555
 3020.8674       -3587663       -3427357       -3598212       -3847908
 3028.5833       -3786582       -3482416       -3576565       -3780359
 3036.2991       -3780036       -3889808       -4017484       -4074297
 3044.0149       -3999725       -3944368       -3877693       -3810351
 3051.7307       -3975370       -4018366       -3961916       -3988578
 3059.4465       -3958186       -3812945       -3701501       -3839931
 3067.1624       -4051934       -4060974       -3940255       -3824284
 3074.8782       -3739190       -3872219       -3917849       -3839022
 3082.594       -3724523       -3500856       -3529375       -3557307       -3553892
 3092.2388       -3672777       -3678001       -3600842       -3418460
 3099.9546       -3349339       -3458150       -3548127       -3611992
 3107.6704       -3489951       -3343028       -3347783       -3266482
 3115.3862       -3208650       -3427469       -3592000       -3407227
 3123.1021       -3324551       -3602069       -3787735       -3655163
 3130.8179       -3655087       -3842093       -3677887       -3446085
 3138.5337       -3635671       -3846943       -3688533       -3666783
 3146.2495       -3878630       -3885323       -3826698       -3791940
 3153.9653       -3615022       -3508704       -3642293       -3711183
 3161.6812       -3743728       -3914755       -4142297       -4039775
 3169.397       -3733363       -3765193       -3850439       -3702428       -3629831
 3179.0417       -3840115       -4138932       -4209038       -4046040
 3186.7576       -3913795       -4167372       -4469329       -4099397
 3194.4734       -3651565       -3731513       -4087697       -4310079
 3202.1892       -4229799       -4169294       -4196193       -4081968
 3209.905       -3965725       -4055134       -4356140       -4554968       -4369854
 3219.5498       -4298621       -4221208       -4094192       -4246465
 3227.2656       -4372402       -4221863       -4241143       -4583008
 3234.9814       -4646771       -4550675       -4569896       -4657108
 3242.6973       -4652863       -4607225       -4779347       -4949053
 3250.4131       -4711255       -4668622       -4885500       -4943107
 3258.1289       -4993111       -4879101       -4995034       -5283221
 3265.8447       -5236798       -5033077       -5054605       -5155590
 3273.5605       -5140921       -5032965       -4847449       -4969361
 3281.2764       -5272583       -5343151       -5287809       -5356081
 3288.9922       -5489065       -5430445       -5275375       -5468614
 3296.708       -5595514       -5331482       -5400824       -5628329       -5797826
 3306.3528       -5928561       -5668721       -5421743       -5452141
 3314.0686       -5552915       -5733452       -5871049       -5900798
 3321.7844       -6021552       -6111848       -6214682       -6319135
 3329.5002       -6230303       -6284909       -6428974       -6300741
 3337.2161       -6057974       -6092556       -6242816       -6366579
 3344.9319       -6334658       -6384332       -6703556       -6599084
 3352.6477       -6344935       -6331966       -6550997       -6703888
 3360.3635       -6515021       -6316639       -6327437       -6367534
 3368.0793       -6169648       -6042697       -6289396       -6521674
 3375.7952       -6534510       -6635338       -6616985       -6569375
 3383.511       -6629110       -6514360       -6332309       -6245037       -6384117
 3393.1558       -6343320       -6112210       -6281965       -6476084
 3400.8716       -6309186       -6156127       -6352100       -6471376
 3408.5874       -6306178       -6108534       -6051856       -6126441
 3416.3032       -6071842       -6070654       -6154279       -6158348
 3424.019       -6055338       -5937629       -5945403       -5906368       -5749263
 3433.6638       -5692600       -5656999       -5608787       -5609326
 3441.3796       -5535034       -5559954       -5568142       -5324436
 3449.0955       -5001697       -4814848       -4787589       -4876267
 3456.8113       -5102559       -5156850       -5019962       -4918764
 3464.5271       -4781180       -4658266       -4569926       -4616441
 3472.2429       -4763394       -4691712       -4357046       -4209364
 3479.9587       -4121188       -4071019       -4093341       -3939957
 3487.6746       -4058504       -4073333       -3848368       -3923401
 3495.3904       -4007766       -3697922       -3390766       -3483476
 3503.1062       -3641762       -3547485       -3544634       -3628205
 3510.822       -3334382       -3146670       -3197535       -3183683       -3219557
 3520.4668       -3331696       -3211806       -2884462       -2774193
 3528.1826       -2625638       -2443267       -2532483       -2486236
 3535.8984       -2149245       -2043958       -2200582       -2336717
 3543.6143       -2263186       -1954095       -1856540       -2107301
 3551.3301       -2237806       -2091655       -2044861       -1993313
 3559.0459       -1725570       -1599307       -1650528       -1465357
 3566.7617       -1301991       -1275698       -1283220       -1458510
 3574.4775       -1363585       -1195717       -1250075       -1104182
 3582.1934       -1152590       -1348703       -1071571        -958074
 3589.9092       -1063632        -942698        -745133        -787610
 3597.625       -1093714       -1137618       -1003176        -895757        -820248
 3607.2698        -644933        -462359        -507763        -523521
 3614.9856        -522284        -773825        -915268        -749433
 3622.7014        -599536        -406276        -262336        -195545
 3630.4172         -96354        -309634        -447631        -273906
 3638.1331        -317680        -399821        -228863         -94105
 3645.8489        -299608        -303921         202968         202314
 3653.5647         -56394          20287         127795        -171777
 3661.2805        -184875         117307         187663         280486
 3668.9963         389270         544339         367536           9267
 3676.7122         235453         484152         519306         237464
 3684.428          43842         318073         395190         497741         375784
 3694.0728         234764         383303         358319         137042
 3701.7886         143311         372973         226088        -105192
 3709.5044        -133430         350352         443975           9251
 3717.2202           3997          45849          70803         283050
 3724.936         213597         215179         463118         413030         371644
 3734.5808         581898         565852         511345         457346
 3742.2966         283716         246744         453326         248006
 3750.0125         -30869         272284         366593         135092
 3757.7283         -44239         -50218          89495          13074
 3765.4441        -159293          12232         109111        -104226
 3773.1599          59795         177725         114643         241053
 3780.8757         172384          98138         277127         177009
 3788.5916          -8728         141659         165104         146465
 3796.3074          21197        -183791        -260763        -207455
 3804.0232         163508         139211         177321         221117
 3811.739          84810         190923          -4217         -53308         110740
 3821.3838         203342         412948         176584         -79125
 3829.0996          95847         353548         373150         321812
 3836.8154         342157         362734         197320          67967
 3844.5313         300659         384256         146626          53264
 3852.2471         -50008        -105293         102225         213450
 3859.9629         170239          11527        -137893         -67987
 3867.6787          57889         -39988          -4700         -16415
 3875.3945         110905         294604         319755         365979
 3883.1104         174091         124775         238802          88739
 3890.8262         -22840         176585         243733         133305
 3898.542          56698          11457          41922         -24232         -64245
 3908.1868         157302         200495          74787          59222
 3915.9026          18918         -29519         -29834         115811
 3923.6184         163912          -6035         -40926          42357
 3931.3342         -47288         147406         387647         161926
 3939.05        -103947        -146673           3282          91922         313473
 3948.6948         281725         173982         257840          48931
 3956.4106          88487         183449         106059          75644
 3964.1265         -60641        -184169        -238593        -119231
 3971.8423         -13999        -110031        -111984        -179906
 3979.5581        -335729        -497801        -499560        -169126
 3987.2739        -149364        -122659          26608         -87024
 3994.9897          -4928         130795         255690         311452
##END=$$ End of the data block
