##TITLE=Adamantane, 99+%
##JCAMP-DX=5.00 $$ ACD/DocManager Library v 8.12
##SPECTROMETER/DATA SYSTEM=TravelIR
##DATE=07 Jan 2003 02:28:30
##DATA TYPE=INFRARED SPECTRUM
##DATA CLASS=XYDATA
##ORIGIN=
##OWNER=
##NPOINTS=1738
##FIRSTX=650.09326172
##LASTX=4000.87011719
##MAXX=4000.87011719
##MINX=650.09326172
##MAXY=0.32853135
##MINY=0.00412993
##XFACTOR=1.0000000000
##YFACTOR=1.000000000000000e-9
##FIRSTY=0.02798190
##DELTAX=1.92905974
##XUNITS=1/CM
##YUNITS=ABSORBANCE
##XYDATA=(X++(Y..Y))
  650.0933       27981896       26818238       26268046       26577221
  657.8096       27072547       26768303       25952110       25616176
  665.5259       25415702       25403313       24767730       24347460
  673.2422       24748629       24716320       24089433       23973374
  680.9585       24318112       24428971       24605442       24793450
  688.6748       24439329       23878602       23651058       23276588
  696.3911       23166247       23285616       22927096       22892751
  704.1074       22748785       22612967       22718623       22271533
  711.8237       21874251       21846177       21748977       21391708
  719.54       21295551       21647913       21780280       21422971       21210860
  729.1854       21263778       21293493       21232476       21070421
  736.9017       20917073       20993721       21056632       20776274
  744.618       20668713       20548025       20348612       20436853       20657755
  754.2634       20878978       20904189       20787146       20869905
  761.9797       20641508       20371694       20249557       20425558
  769.696       20662483       20584865       20460198       20753697       21294167
  779.3414       22012606       23011569       24140123       24886979
  787.0577       25521262       26175957       28375395       33803839
  794.774       47483679       82807660       91982968       50816290       25097849
  804.4194       20741118       19432953       19927958       20015264
  812.1357       19720931       18825304       18160636       17480340
  819.8521       17321959       17341692       17479273       17758122
  827.5684       17996000       18056195       18016838       17707499
  835.2847       17478364       17523523       17570598       17437253
  843.001       17262423       17270835       17130543       16929166       16876301
  852.6464       16941186       17060732       16932016       16722098
  860.3627       16697677       16665727       16622443       16572457
  868.079       16603263       16580129       16534831       16427357       16408278
  877.7244       16548207       16565446       16672553       16747400
  885.4407       16651049       16583730       16402742       16293138
  893.157       16297458       16232248       16308120       16406046       16427524
  902.8024       16465608       16586307       16575636       16470930
  910.5187       16440168       16215051       15986467       15853757
  918.235       15781105       15810497       15729204       15678322       15805274
  927.8804       15900718       16033350       16227663       16396670
  935.5967       16634345       16891301       17154150       17518628
  943.313       18350787       20677254       23853196       24346961       22046292
  952.9584       20054851       19177370       19138372       19782003
  960.6747       21658596       26790971       35084341       41997805
  968.391       41700862       32299493       21483643       16524907       15450981
  978.0364       15275262       15310640       15161694       14787996
  985.7527       14399046       14101050       14027917       14029144
  993.469       14039168       14102263       13995796       13955491       13997007
 1003.1144       14053182       14203214       14313915       14349030
 1010.8307       14245834       14164047       14147072       14100681
 1018.547       14129972       14224167       14356717       14518125       14726085
 1028.1924       14870643       14878748       14901148       14961843
 1035.9087       15097084       15304998       15318681       15181609
 1043.625       15016234       14827972       14854375       14903166       14863622
 1053.2704       14999522       15166650       15295161       15374845
 1060.9867       15332253       15385134       15559768       15793217
 1068.703       16001113       16145930       16307477       16467297       16843541
 1078.3484       17422227       18095402       18827084       19796543
 1086.0647       20899380       22041447       23522440       26035264
 1093.781       30260265       37664056       48364408       61168708       67369908
 1103.4264       52389625       30357001       20514812       18222278
 1111.1427       17610608       17341772       16940620       16381627
 1118.859       15575630       14878668       14401056       14120014       13967732
 1128.5044       13988679       13931844       13862166       13837504
 1136.2207       13646604       13515315       13462202       13364160
 1143.937       13283414       13153610       13092600       13072836       12940466
 1153.5824       12847123       12927833       12976052       12907086
 1161.2987       12819757       12771775       12745949       12626554
 1169.015       12533875       12535726       12525759       12549713       12579699
 1178.6604       12579387       12456717       12252832       12128929
 1186.3767       11988166       11886466       11853611       11801583
 1194.093       11708689       11619729       11672888       11683699       11625676
 1203.7384       11585456       11526434       11559365       11635426
 1211.4547       11680452       11696541       11687157       11625877
 1219.171       11557388       11583537       11620261       11642559       11670095
 1228.8164       11714269       11844032       11974692       12094987
 1236.5327       12201971       12309460       12417281       12476893
 1244.249       12556257       12608265       12604455       12601938       12639635
 1253.8944       12710483       12740706       12792601       12850721
 1261.6107       12949388       13078588       13122503       13134480
 1269.327       13063864       12866767       12757272       12800638       12844844
 1278.9724       12797254       12789424       12859518       12964761
 1286.6887       13076770       13062087       13041815       13080144
 1294.405       13114923       13077101       13051789       13136105       13480032
 1304.0504       14034485       14620118       15197086       15439780
 1311.7667       14665687       13680947       13515718       13833478
 1319.483       14130785       14243461       14130771       14024497       13985609
 1329.1284       14213351       14933651       15998302       17345548
 1336.8447       18763134       20243123       21406014       22815615
 1344.561       25588982       33794362       51963210       94885901      121679030
 1354.2064       75362302       29712193       19386273       17900843
 1361.9227       18509004       18667571       18258261       17384591
 1369.639       16195208       15232745       14731858       14320021       14115295
 1379.2844       14264483       14511602       14786134       15025429
 1387.0007       15310094       15495889       15670143       15753746
 1394.717       15639659       15377183       15440711       15698286       15978441
 1404.3624       16562846       17244779       17738264       17968507
 1412.0787       17991742       18096117       18366776       18866194
 1419.795       19295154       19242192       19457990       19814530       20527875
 1429.4404       22071879       24495710       27725736       31502020
 1437.1567       34919955       37092902       39914642       45738462
 1444.873       56128968       79126202      114433296      110290036       66110626
 1454.5184       38397767       28385017       23638150       21817133
 1462.2347       20538753       19622149       17765265       16063560
 1469.951       15026119       14533835       13955434       13530404       13142413
 1479.5964       12868769       12724176       12579895       12488780
 1487.3127       12455910       12285597       11956047       11637867
 1495.0291       11535918       11376604       11085811       10912260
 1502.7454       10840495       11041042       11425973       11301579
 1510.4617       11038990       10955477       11031471       11164734
 1518.178       10875630       10414807        9900172        9472800        9336027
 1527.8234        9273349        9097592        9160456        9326597
 1535.5397        9213554        9261611        9708185        9847334
 1543.256        9576926        9347990        9258697        9408852        9506220
 1552.9014        9484915        9487966        9588122        9915136
 1560.6177        9771707        9492625        9402162        9305852
 1568.334        9270978        9171896        8879924        8792590        8958853
 1577.9794        8920127        8864917        8994920        9175293
 1585.6957        9289383        9373907        9423916        9433670
 1593.412        9453638        9469845        9538112        9624150        9592348
 1603.0574        9543149        9505404        9381566        9292988
 1610.7737        9350273        9369784        9417607        9615602
 1618.49        9538486        9364075        9375061        9376143        9369369
 1628.1354        9428804        9508377        9649935        9879349
 1635.8517       10175201       10255398       10213406       10205125
 1643.568       10173316       10250530       10268942       10102044       10245604
 1653.2134       10630437       10427915       10137619        9973554
 1660.9297        9831404        9715914        9590412        9553193
 1668.646        9638785        9593807        9453437        9512854        9509305
 1678.2914        9391252        9262830        9119438        9142892
 1686.0077        8873585        8507294        8352849        8161373
 1693.724        8164677        8327440        8195965        8195137        8121062
 1703.3694        7934482        7958863        7976133        7973475
 1711.0857        8013412        8090884        8223127        8326494
 1718.802        8154538        7871074        7681667        7549942        7513320
 1728.4474        7579507        7569092        7601550        7860905
 1736.1637        7738014        7558582        7616016        7698169
 1743.88        7838974        8039331        8131330        8176355        8182824
 1753.5254        7911509        7665611        7517687        7469899
 1761.2417        7529959        7375803        7123823        7068558
 1768.958        6991436        6938433        6966114        6774076        6610853
 1778.6034        6653097        6680637        6593299        6545160
 1786.3197        6573592        6641279        6704771        6764110
 1794.036        6723220        6611741        6516034        6497461        6606455
 1803.6814        6617469        6555900        6487106        6361279
 1811.3977        6371596        6412207        6395580        6467432
 1819.114        6469087        6412676        6494108        6608719        6584448
 1828.7594        6609100        6602948        6471884        6590417
 1836.4757        6698022        6557643        6504757        6739730
 1844.192        7074852        7067081        7064572        7132390        7073891
 1853.8374        7073632        6946002        6765306        6633391
 1861.5537        6607516        6730566        6707480        6767820
 1869.27        6962656        6908416        6854868        6924691        6934745
 1878.9154        7031452        7171668        7042997        6903060
 1886.6317        7116492        7536095        7976478        8078462
 1894.348        7872039        7679004        7466555        7291198        7360415
 1903.9934        7363543        7204102        7555308        8232946
 1911.7097        8445115        8006743        7542180        7520876
 1919.426        7617644        7630229        7707907        7825990        7580893
 1929.0714        7232606        7040329        6878375        6912143
 1936.7877        7043252        7111728        7154837        7202078
 1944.504        7121643        7109863        7145027        7145062        7308214
 1954.1494        7405949        7100880        6937789        7034378
 1961.8657        7061006        7271198        7304460        7184921
 1969.582        7046565        7033199        7365128        7506940        7621660
 1979.2274        7858362        7472446        7054759        7422795
 1986.9437        7873157        7748593        7736596        7918179
 1994.66        7638783        7359258        7253378        7528134        8050718
 2004.3054        8434358        9146963        9315015        8757827
 2012.0217        8398349        8316448        8377703        8251168
 2019.738        8043482        7742612        7446928        7528573        7973506
 2029.3834        8220300        8194257        8245463        8003850
 2037.0997        7761588        7745833        7736679        7882858
 2044.816        7999166        8163860        8085901        7676657        7573081
 2054.4609        7667036        7552566        7482569        7590825
 2062.1768        7813442        7779456        7456674        7548217
 2069.8926        7735573        7761169        7684479        7702523
 2077.6084        7761256        7606959        7542966        7561571
 2085.3242        7599217        7585726        7360889        7187038
 2093.04        7180095        7353413        7522070        7641879        7856810
 2102.6848        7935282        8697608        9475866        9221196
 2110.4006        8885420        8969571        9413042        9047925
 2118.1165        7942907        7375870        7194117        7170391
 2125.8323        7153069        7279515        7254969        6777760
 2133.5481        6954344        7527255        7695484        7549528
 2141.2639        7295199        7529782        7922668        8191641
 2148.9797        8228728        8113788        8102207        7949934
 2156.6956        7685209        8248189        9041446        8784601
 2164.4114        8270056        7965865        7867250        7725475
 2172.1272        7728694        7778354        7866509        8092162
 2179.843        8028485        7887408        8082905        8194494        7964424
 2189.4878        7943363        8099504        8112496        8150491
 2197.2036        8291942        8393219        8523342        8838480
 2204.9194        9271987        9256206        8796718        8486440
 2212.6353        8288980        8138999        8282772        8303507
 2220.3511        8077485        8047310        8060933        7997661
 2228.0669        8063395        8321377        8480066        8315730
 2235.7827        7916777        7550500        7430202        7414396
 2243.4985        7338816        7296636        7259369        7317035
 2251.2144        7200112        6896078        7018027        7090239
 2258.9302        6892674        6865879        7043648        7319799
 2266.646        7362121        7196945        7122043        7197253        7316384
 2276.2908        7244584        7199731        7295686        7441316
 2284.0066        7505545        7364502        7164322        7025855
 2291.7224        7081115        7160021        7066537        6998409
 2299.4382        6990144        6912298        7079067        7140284
 2307.1541        6893356        6855442        6853188        6947412
 2314.8699        7304046        7541813        7553171        7450578
 2322.5857        7353930        7119897        6687717        6571682
 2330.3015        6674020        6758599        6819526        6840352
 2338.0173        6944481        7085363        7226862        7304335
 2345.7332        7295426        7019624        6740426        6757465
 2353.449        6883226        6972819        6877710        6597141        6584695
 2363.0938        6769560        6650192        6560091        6673743
 2370.8096        6610197        6587632        6639892        6624576
 2378.5254        6699636        6895748        7110253        7351988
 2386.2412        7576054        7685549        7867532        7945751
 2393.957        7845066        7894235        7953444        7893501        7767070
 2403.6018        7726094        7889416        8177174        8618672
 2411.3176        9025175        8935930        8644455        8596278
 2419.0334        8687522        8928456        9134484        9008953
 2426.7493        8685268        8355653        8148524        8032341
 2434.4651        7642713        7412164        7522517        7427692
 2442.1809        7302782        7361705        7540560        7648592
 2449.8967        7648395        7660539        7585494        7482649
 2457.6125        7545356        7590398        7559167        7554478
 2465.3284        7546249        7600748        7613834        7598840
 2473.0442        7484253        7304653        7192058        7086589
 2480.76        7169358        7271845        7286771        7443265        7532636
 2490.4048        7388212        7280267        7310584        7290531
 2498.1206        7225152        7173903        7222842        7397958
 2505.8364        7456300        7484410        7440919        7355015
 2513.5522        7521939        7785841        8050577        8149063
 2521.2681        7981052        7839933        7879714        8014121
 2528.9839        8068032        8111073        8163081        8088945
 2536.6997        8071839        8281246        8652950        9038466
 2544.4155        9308815        9542949        9688444        9657720
 2552.1313        9904046       10633389       11711027       12889745
 2559.8472       13521750       13408447       13063633       12803669
 2567.563       12458981       11861416       11272426       10780154       10090817
 2577.2078        9428520        9043514        8966603        9150937
 2584.9236        9417843        9869182       10343588       10474174
 2592.6394       10336976       10162969       10122352       10245515
 2600.3552       10672156       11234040       11150742       10499367
 2608.071       10182704       10304361       10470990       10889611       11686707
 2617.7158       12556742       13359481       13751633       13606766
 2625.4316       13517969       14110771       15583030       18317025
 2633.1475       22228606       24343584       22478925       18760549
 2640.8633       16164979       15778927       17235866       20235037
 2648.5791       24576053       28807327       29183198       25412142
 2656.2949       22702519       22961685       24928484       28006032
 2664.0107       31631503       33741929       29749488       21881370
 2671.7266       17055018       15335925       14412802       13759176
 2679.4424       13304003       12974791       12856124       12834306
 2687.1582       12255470       11257847       10593188       10459639
 2694.874       10611783       10999477       11550874       12132751       12283299
 2704.5188       11695746       10972356       10685574       10675596
 2712.2346       10755624       10959672       11098504       11204694
 2719.9504       11449021       11681659       11902878       12156582
 2727.6663       12376749       12730277       13323236       14104041
 2735.3821       14772579       15054855       15171496       15294041
 2743.0979       15338629       15144678       14763958       14543578
 2750.8137       14657634       14907349       14997008       14885201
 2758.5295       14767858       14771398       14984706       15350593
 2766.2454       15737135       16241666       16725473       17043214
 2773.9612       17362485       17839095       18476011       19178148
 2781.677       20089857       21253286       22310011       23220347       24052864
 2791.3218       24921315       26233191       28129168       30646978
 2799.0376       33531070       35555802       35788395       35211258
 2806.7534       35295695       36621906       39215069       42811915
 2814.4692       47222465       52243128       56209579       57571318
 2822.1851       58227200       60484670       64769700       70884787
 2829.9009       78494743       87497555       98118976      111262605
 2837.6167      127948359      149050161      174097896      199144974
 2845.3325      216322526      215227678      192567721      161269441
 2853.0483      136863753      123270862      116794705      113376930
 2860.7642      111338206      111250557      113886200      119366691
 2868.48      127462000      137521788      149297982      163056999      179363087
 2878.1248      198485866      219897330      242370591      263445020
 2885.8406      279916346      290171713      294702858      296906024
 2893.5564      302907407      316173166      328531355      322524488
 2901.2722      297609299      271393567      253697813      242381543
 2908.988      230476618      212445170      188271254      163081437      142770201
 2918.6328      130729988      127345949      131240621      136841968
 2926.3486      126710415       97453468       70622012       55659942
 2934.0645       47786620       42926978       39216779       36006790
 2941.7803       33001088       30363092       28075783       26166724
 2949.4961       24597833       23093648       21738712       20590678
 2957.2119       19485323       18509198       17674197       16836455
 2964.9277       15875656       14837646       14091706       13418677
 2972.6436       12556941       11920667       11451805       10907156
 2980.3594       10418156        9992654        9605920        9256355
 2988.0752        8934414        8648299        8327146        8007147
 2995.791        7825186        7676604        7456338        7267287        7190384
 3005.4358        7243188        7276775        7157273        6924558
 3013.1516        6776694        6697994        6517106        6522403
 3020.8674        6632362        6591244        6489006        6521071
 3028.5833        6556528        6434372        6462567        6527635
 3036.2991        6461467        6383972        6288614        6142461
 3044.0149        6172590        6361933        6385100        6332956
 3051.7307        6348500        6331396        6311277        6302367
 3059.4465        6315455        6306787        6244370        6347642
 3067.1624        6421885        6362696        6383795        6346290
 3074.8782        6269227        6220115        6170303        6227085
 3082.594        6265014        6204687        6128859        6088173        6142061
 3092.2388        6250833        6288787        6226607        6186888
 3099.9546        6235460        6332341        6383925        6218415
 3107.6704        6165679        6386133        6400476        6303297
 3115.3862        6295382        6295950        6330546        6312542
 3123.1021        6365723        6505396        6472250        6388672
 3130.8179        6358718        6351302        6321005        6304092
 3138.5337        6298947        6248812        6267831        6263799
 3146.2495        6199452        6250250        6316945        6375953
 3153.9653        6395866        6253548        6244443        6355140
 3161.6812        6440303        6456927        6365594        6330392
 3169.397        6335549        6222723        6175948        6390931        6413807
 3179.0417        6272293        6313862        6427698        6498795
 3186.7576        6456381        6432589        6511416        6561109
 3194.4734        6542433        6574158        6550769        6485105
 3202.1892        6437434        6455450        6688253        6815798
 3209.905        7008791        7274793        7175177        7289276        7588076
 3219.5498        7675715        7769780        7693263        7386115
 3227.2656        7205795        7211597        7022592        6891504
 3234.9814        6812930        6636538        6630982        6556385
 3242.6973        6456527        6380789        6278099        6285711
 3250.4131        6460794        6558808        6455899        6421122
 3258.1289        6445238        6467341        6315620        6202343
 3265.8447        6315902        6365515        6399024        6340600
 3273.5605        6305046        6414883        6478137        6431599
 3281.2764        6369438        6392737        6407467        6452048
 3288.9922        6393175        6268682        6433972        6555280
 3296.708        6417421        6360214        6399529        6408882        6376202
 3306.3528        6378590        6481595        6466265        6259485
 3314.0686        6203847        6289524        6311347        6252900
 3321.7844        6172096        6054231        5987422        6173456
 3329.5002        6293114        6288257        6272043        6255970
 3337.2161        6327188        6506791        6786734        6943932
 3344.9319        7028391        7126439        7272540        7379388
 3352.6477        7190612        6878434        6676822        6651825
 3360.3635        6745664        6606763        6414295        6408761
 3368.0793        6449345        6623648        6518518        6123093
 3375.7952        5839805        5630472        5685919        5738460
 3383.511        5789283        5931476        5857812        5796171        5824300
 3393.1558        5931066        5790174        5450489        5422577
 3400.8716        5580293        5672743        5580371        5484397
 3408.5874        5510615        5537197        5611928        5611652
 3416.3032        5462237        5454533        5515372        5435108
 3424.019        5411653        5413284        5347490        5372539        5391907
 3433.6638        5375138        5324820        5161930        5139355
 3441.3796        5344477        5437276        5332995        5343408
 3449.0955        5494236        5469352        5323540        5342449
 3456.8113        5393193        5331463        5273399        5214862
 3464.5271        5166963        5209542        5281489        5228260
 3472.2429        5221219        5194981        5065840        5111604
 3479.9587        5149196        5140188        5252490        5346516
 3487.6746        5248466        5154761        5204649        5091195
 3495.3904        4929846        4927865        4925011        4958514
 3503.1062        4918802        4860568        4950967        4981492
 3510.822        5112003        5268998        5049247        4827224        4873825
 3520.4668        4839044        4815385        5048519        5139611
 3528.1826        5039784        5099432        5217989        5308868
 3535.8984        5259027        5111906        5072166        5183853
 3543.6143        5316285        5242121        5151641        5120101
 3551.3301        4941233        4862469        4854469        4663352
 3559.0459        4682519        4867099        4902011        4844681
 3566.7617        4659198        4512052        4458254        4428193
 3574.4775        4504270        4632585        4692583        4547625
 3582.1934        4393642        4389209        4416071        4534348
 3589.9092        4602283        4554742        4530776        4602241
 3597.625        4597254        4529314        4667611        4576036        4372521
 3607.2698        4414462        4407992        4407038        4414631
 3614.9856        4370197        4332863        4279086        4176687
 3622.7014        4129932        4232341        4309672        4370981
 3630.4172        4468246        4365230        4345796        4458286
 3638.1331        4428600        4310075        4229171        4317400
 3645.8489        4383198        4397418        4495706        4534327
 3653.5647        4422266        4395468        4638158        4778552
 3661.2805        4684589        4481556        4409787        4410043
 3668.9963        4335023        4327853        4187185        4215204
 3676.7122        4442919        4525864        4798985        4950977
 3684.428        4742519        4567477        4594489        4613948        4640065
 3694.0728        4748122        4790126        4760888        4736043
 3701.7886        4806344        4809437        4769536        4819801
 3709.5044        4757694        4800466        5067374        5053927
 3717.2202        5043270        5269561        5407291        5221357
 3724.936        4665901        4440764        4663528        4784750        4781331
 3734.5808        4776151        4835254        4754397        4530668
 3742.2966        4355722        4466563        4753290        4847717
 3750.0125        4787433        4843123        4817063        4558586
 3757.7283        4510581        4570756        4519848        4479608
 3765.4441        4558704        4501678        4426375        4516455
 3773.1599        4538692        4547292        4689611        4819122
 3780.8757        4818412        4623578        4476459        4676400
 3788.5916        4849329        4804534        4720525        4810009
 3796.3074        4819321        4729241        4610812        4609188
 3804.0232        4863941        4905427        5036014        5297041
 3811.739        5377402        5088137        4862221        5014155        4985505
 3821.3838        4761727        4509732        4487833        4514489
 3829.0996        4511843        4523196        4431374        4483572
 3836.8154        4638986        4636042        4621765        4650882
 3844.5313        4549521        4524644        4627128        4516320
 3852.2471        4598901        5091369        5005031        4738828
 3859.9629        4772203        4756103        4677016        4840948
 3867.6787        4996857        5045034        4947571        4841174
 3875.3945        5047835        4994065        4917366        5259945
 3883.1104        5167271        4872606        4979899        4864646
 3890.8262        4652444        4633090        4647849        4568403
 3898.542        4357292        4433319        4590443        4616289        4620271
 3908.1868        4553517        4457788        4412606        4631596
 3915.9026        4922751        5010976        5081140        5315131
 3923.6184        5505100        5641132        5825179        5888009
 3931.3342        6012560        6165378        6047316        6093763
 3939.05        6215139        5954961        5828971        5936214        5768984
 3948.6948        5578311        5516252        5380215        5132765
 3956.4106        4865572        4826814        4904717        4801940
 3964.1265        4632929        4617468        4575749        4483686
 3971.8423        4461464        4539451        4637416        4689078
 3979.5581        4730570        4635929        4621096        4762533
 3987.2739        4667698        4659278        5018652        5229324
 3994.9897        5297965        5351605        5405765        5449737
##END=$$ End of the data block
