##TITLE=2,6-Dichlorobenzyl alcohol, 99%
##JCAMP-DX=5.00 $$ ACD/DocManager Library v 8.12
##SPECTROMETER/DATA SYSTEM=TravelIR
##DATE=07 Jan 2003 02:32:20
##DATA TYPE=INFRARED SPECTRUM
##DATA CLASS=XYDATA
##ORIGIN=
##OWNER=
##NPOINTS=1738
##FIRSTX=650.09326172
##LASTX=4000.87011719
##MAXX=4000.87011719
##MINX=650.09326172
##MAXY=0.33084846
##MINY=0.02544443
##XFACTOR=1.0000000000
##YFACTOR=1.000000000000000e-9
##FIRSTY=0.18014990
##DELTAX=1.92905974
##XUNITS=1/CM
##YUNITS=ABSORBANCE
##XYDATA=(X++(Y..Y))
  650.0933      180149898      180135757      179689541      180668727
  657.8096      181371003      180611506      181004077      181969076
  665.5259      181952551      182584152      183158472      181935579
  673.2422      181068644      181224242      181029588      180199936
  680.9585      179974422      180209249      179513916      178936005
  688.6748      178193048      176425681      175656512      174713239
  696.3911      173158258      172360718      172066867      171650663
  704.1074      171522200      171722025      172002062      173331380
  711.8237      175356448      177749500      181026235      184833229
  719.54      189882934      196747258      205750182      220773995      244041815
  729.1854      269958913      273995727      241475657      204791382
  736.9017      183949172      174926490      175199345      179976210
  744.618      186154738      193345889      201780647      212099656      225465134
  754.2634      242302477      261834025      283881187      307323962
  761.9797      326169670      330848455      314655513      284154892
  769.696      254846543      242653370      254986495      281957507      280850887
  779.3414      221952140      150974497      103470273       78798145
  787.0577       68551339       63764915       61258715       59280846
  794.774       57273068       55949248       55155415       54945633       55372458
  804.4194       55799127       56345545       57420075       58567196
  812.1357       59769280       61312083       63157491       66270880
  819.8521       71943551       81933983       94684042       97520821
  827.5684       92569008       87616883       76163433       64056098
  835.2847       58794852       57337958       56924004       56559164
  843.001       56112584       55897668       55731785       55518690       55584859
  852.6464       55798534       56030039       56483615       57020240
  860.3627       57441156       57832316       58432493       59082195
  868.079       59712958       60326841       60945943       61689690       62371764
  877.7244       62944449       63566014       64221233       64726025
  885.4407       65699749       67922823       72124399       73440053
  893.157       70026763       71177207       73499791       69721907       66858031
  902.8024       67351952       68346865       69421828       70324123
  910.5187       71219556       72303489       73349565       74565180
  918.235       76061219       77872224       80192126       82332768       83696000
  927.8804       85139148       87108709       89087822       91098540
  935.5967       93292914       95723189       98428577      101251937
  943.313      104125693      107167259      110659733      114792526      119684234
  952.9584      125712007      133565649      144694597      160858572
  960.6747      180288732      191505149      196061283      202638566
  968.391      197634161      181367114      161513537      135736823      116888620
  978.0364      112835698      115137592      115725078      113447271
  985.7527      112116061      113989122      118541613      125368848
  993.469      133559912      142833814      152959481      163034961      174014330
 1003.1144      187521771      204456538      225055337      247500896
 1010.8307      267585814      278381646      277984619      275290549
 1018.547      265303701      236697227      199378103      161011219      123620965
 1028.1924       95488764       79793453       71801439       66829644
 1035.9087       63039593       60030900       58074336       56853604
 1043.625       56260236       56394663       56842338       57643518       58755990
 1053.2704       60082771       61453715       63125737       64823925
 1060.9867       66683210       69334291       73483475       80990233
 1068.703       95571160      113870047      115054697      100748532       94490439
 1078.3484       97398780      104896687      119070694      144193903
 1086.0647      174907565      187420115      166492775      122770637
 1093.781       84327944       65974928       60200904       58699653       58190349
 1103.4264       57383422       56499727       55696204       54923609
 1111.1427       54376580       54484479       54815076       55313751
 1118.859       56171123       57053048       57871785       58942366       60094360
 1128.5044       61164636       62253527       63207217       64122386
 1136.2207       65090127       66322133       67971446       71113095
 1143.937       76649189       86604968       93890600       88678472       83237581
 1153.5824       84489629       82787082       77054508       73669083
 1161.2987       74503027       77205509       80605850       84820896
 1169.015       90061307       96877068      106272452      117697194      127750158
 1178.6604      130921632      126000211      119904578      119276948
 1186.3767      121420942      116308130      106109358      101054579
 1194.093       98970175       98479144      106881216      115372717      109825075
 1203.7384      104037896      102811284       92447840       76983288
 1211.4547       67590751       66301964       69655947       75498611
 1219.171       82408689       86098209       83786778       79275057       73841691
 1228.8164       65556221       58435518       55381566       53971939
 1236.5327       52653741       51918682       51654823       51481739
 1244.249       51382251       51528536       51757716       52089408       52715983
 1253.8944       53376384       54188855       55238649       56176186
 1261.6107       56767546       57137065       57387445       57717983
 1269.327       58443241       59396572       60671575       62432703       64813972
 1278.9724       68175659       72795093       77392206       78690305
 1286.6887       76609798       73817968       70089303       65749899
 1294.405       63115090       62357135       62409922       62722638       63136958
 1304.0504       63836150       64867519       65968305       66826500
 1311.7667       67141630       67037754       67019105       67103013
 1319.483       67151591       67489713       68312913       69498286       70767380
 1329.1284       71965307       73073931       73963434       74592702
 1336.8447       75095646       75624384       76162212       76749958
 1344.561       77615015       78725144       80101497       81694253       83241008
 1354.2064       84680498       85986145       87248594       88480778
 1361.9227       89788944       91273829       92988327       95150270
 1369.639       97149223       97859025       97305417       96115686       95637441
 1379.2844       96971504       99576354      102668732      105706923
 1387.0007      108715534      111118056      112146012      112755269
 1394.717      113603346      114191115      114710405      115490817      116139598
 1404.3624      117534585      119315460      121028706      123467468
 1412.0787      126419589      129809052      133897051      138647974
 1419.795      144221708      148153663      151991025      157439932      164210990
 1429.4404      174690396      189788654      210873857      226988435
 1437.1567      198630944      133540273       87059520       69694579
 1444.873       66497117       65411903       64329132       62098704       60286026
 1454.5184       58812078       57985999       56287903       55187538
 1462.2347       55296991       56679126       58315780       58879510
 1469.951       58345310       56189775       52848566       50598048       49015891
 1479.5964       47752816       47150478       47037434       47071882
 1487.3127       47382426       47800407       47688823       47481809
 1495.0291       48086997       48556879       48110086       47951221
 1502.7454       48005536       47989532       47904518       46672221
 1510.4617       45401234       45108717       45166843       45399994
 1518.178       45617081       45995876       46356313       46220995       46612062
 1527.8234       47021307       47362696       48340824       49768832
 1535.5397       50668579       51861756       54997232       58220830
 1543.256       60670488       62824428       64513251       67867212       73476784
 1552.9014       80126807       89673989       99226765      116712369
 1560.6177      145860389      146170020      113100030       80013387
 1568.334       69865756       70214748       73342949       78945547       92003554
 1577.9794      108895361      116588458      105708815       81059895
 1585.6957       62009320       53808998       50664265       49170308
 1593.412       47781680       45988169       44389021       42812299       41269511
 1603.0574       40271733       39623991       38864870       38354356
 1610.7737       38112719       37678521       37671726       38188890
 1618.49       37901461       37646577       38040090       37914652       37432648
 1628.1354       37310094       36904305       36327008       36424309
 1635.8517       36712524       36242343       36109123       36108915
 1643.568       35896756       36373530       36760557       36178082       36404815
 1653.2134       37649173       37134681       36808737       37169874
 1660.9297       37266839       37843466       38405269       38679637
 1668.646       39629694       40710207       40583305       40278692       39768178
 1678.2914       38616333       37755828       37597850       37628166
 1686.0077       37001032       36595065       36622614       36281865
 1693.724       36273416       36733635       36497869       36891073       37196081
 1703.3694       36463067       36698777       36979374       36624953
 1711.0857       36581170       36754154       36706455       36806736
 1718.802       36981687       36501944       36308583       36601488       36483064
 1728.4474       36443029       36646686       36642198       37021019
 1736.1637       36964599       36643047       36774036       37008952
 1743.88       36949974       36722641       36819667       37069086       37032828
 1753.5254       36900435       37007485       36965158       36933877
 1761.2417       37254762       37264552       37101489       37430681
 1768.958       37606291       37785057       38401794       38346894       38420122
 1778.6034       39114937       39775260       40204763       40719800
 1786.3197       40828224       39650742       38711343       38446177
 1794.036       37952743       37631247       37466589       37239920       37270602
 1803.6814       37279889       36926173       36863383       37055265
 1811.3977       36925778       36910452       37233014       37252016
 1819.114       37169095       37464768       37439227       37495978       37798177
 1828.7594       37684571       37658151       37969708       38201950
 1836.4757       38043454       38296815       38357716       38199488
 1844.192       38947225       39409213       39261144       39518487       40036865
 1853.8374       40217813       40636536       41149829       41038252
 1861.5537       41191656       41521039       40996473       40532596
 1869.27       40713619       40001877       38910326       38813468       38674790
 1878.9154       38375668       38622703       38585536       38017582
 1886.6317       38199991       38662586       38475916       38553707
 1894.348       38811766       38621388       38557421       39160997       39013080
 1903.9934       38648229       39229259       39108329       39011456
 1911.7097       39523300       39510533       39379302       40239520
 1919.426       40537275       40115338       40830120       40943295       40650554
 1929.0714       41312274       42268932       42820584       43967377
 1936.7877       44803973       43616250       42670678       42724401
 1944.504       42591348       42761553       43651465       43449949       42868372
 1954.1494       43140914       42182453       41089680       41365199
 1961.8657       41892212       41497901       42014651       42962734
 1969.582       42092763       42119063       42036928       41331109       42331830
 1979.2274       43423135       42288668       41364972       42213153
 1986.9437       41907188       41433312       42209420       42031173
 1994.66       40968738       41459296       41850630       41170105       42431053
 2004.3054       42934190       42591821       43558337       43513261
 2012.0217       42853441       43535836       44405643       43738972
 2019.738       44217478       45316402       44737656       44279184       44734236
 2029.3834       44532634       43789249       44239096       44008572
 2037.0997       43457568       44031154       43595884       42695589
 2044.816       43299254       43724895       42456977       42573482       42523537
 2054.4609       41206516       41153900       41400686       40781990
 2062.1768       40616650       41137353       40415999       40192824
 2069.8926       40791441       40120885       39708182       40259752
 2077.6084       40525626       40338885       40434476       40044680
 2085.3242       39745793       40293399       40286835       39902035
 2093.04       40158521       40561672       39890882       39938089       40297639
 2102.6848       39728194       40036511       40462732       39943099
 2110.4006       39811283       40566020       40456124       40153507
 2118.1165       40629711       40065378       39352432       39866541
 2125.8323       40178459       39870702       40512722       40669344
 2133.5481       39933402       40736064       41552495       41316453
 2141.2639       41580822       42393491       41772522       41719195
 2148.9797       42631980       41587662       41359071       42557880
 2156.6956       42450286       42428784       44295378       44195611
 2164.4114       42488851       43139208       42930488       42234883
 2172.1272       43358956       44120479       43186698       43439209
 2179.843       44636313       43385606       43274209       44109862       43244015
 2189.4878       42584088       43183643       42738743       42143229
 2197.2036       43321807       42576581       41363284       42136513
 2204.9194       42242631       41171622       41333519       41964866
 2212.6353       41037824       41565161       41883349       40611085
 2220.3511       40965315       41812185       40992010       40737122
 2228.0669       41940272       41149944       40617984       41424345
 2235.7827       40807810       40515918       41313697       40942822
 2243.4985       40219359       41342258       41174665       40187847
 2251.2144       41022386       41160680       40310189       40576547
 2258.9302       40977392       40018227       40496953       40895630
 2266.646       39979093       40286884       40791985       40182456       39920390
 2276.2908       40419541       39556380       39396480       40093932
 2284.0066       39510209       39303966       39877169       39739024
 2291.7224       39122995       39534278       39489377       39196394
 2299.4382       39909519       39891370       39225452       39223563
 2307.1541       39572969       39151318       39357215       39578013
 2314.8699       38845170       38733248       38885117       38597453
 2322.5857       38546491       38902581       38193986       37886739
 2330.3015       38284492       37966721       37849098       38175747
 2338.0173       38336884       37963722       38348131       38639676
 2345.7332       38372729       38255543       37902556       37888978
 2353.449       38362704       38874906       38519956       38226210       38421925
 2363.0938       38425930       38589738       38732488       38769290
 2370.8096       38615186       38886704       39006554       38774736
 2378.5254       39030891       39151464       38864478       38805977
 2386.2412       39066333       38972810       38969595       39216183
 2393.957       39197285       39411020       39577428       39287273       39176386
 2403.6018       39424155       39386559       39356496       39495986
 2411.3176       39453156       39440833       39652716       39753310
 2419.0334       39318223       39322361       39602619       39315898
 2426.7493       39406177       39644204       39584536       39441239
 2434.4651       39468717       39533593       39567631       39923858
 2442.1809       39942686       39722905       39886106       40040329
 2449.8967       39807729       39789807       40050704       39911479
 2457.6125       39869856       40036887       39792165       39617259
 2465.3284       39673913       39534792       39591752       39857686
 2473.0442       39556000       39425280       39754517       39640471
 2480.76       39424986       39682671       39730493       39396223       39544970
 2490.4048       39671522       39492585       39709061       39783187
 2498.1206       39406911       39482597       39781567       39600261
 2505.8364       39796852       40220462       39897989       39655153
 2513.5522       39980240       39984152       39868727       40367030
 2521.2681       40210444       39905291       40216036       40022351
 2528.9839       39724432       39998248       40145826       39749723
 2536.6997       39987661       40289149       39873216       40044785
 2544.4155       40411610       40164817       40114332       40440213
 2552.1313       40220693       40127691       40615693       40619727
 2559.8472       40458575       40640179       40629223       40527388
 2567.563       40910088       40856302       40610757       40883787       41013297
 2577.2078       40933341       41075848       41360956       41155212
 2584.9236       41095946       41253597       40913299       40877178
 2592.6394       41080218       40871713       40656071       40768217
 2600.3552       40572267       40387779       40750697       40824853
 2608.071       40799327       40919200       40863942       40653918       40671885
 2617.7158       40802006       40767930       40813152       40829960
 2625.4316       40885989       40947467       40894073       40801074
 2633.1475       40757149       40931188       40868826       40703271
 2640.8633       40809836       40831205       40846672       41019976
 2648.5791       41017964       40929370       40991113       41036155
 2656.2949       40930007       40790983       40716287       40532708
 2664.0107       40372830       40363278       40198971       40011734
 2671.7266       40086541       39905090       39569523       39602328
 2679.4424       39708730       39625600       39629232       39676797
 2687.1582       39615810       39720245       39857682       39776832
 2694.874       39883476       40097244       39967570       39899271       40077802
 2704.5188       40119823       40115133       40333092       40525932
 2712.2346       40563218       40749423       40696338       40449381
 2719.9504       40649910       40651627       40486947       40577952
 2727.6663       40538900       40328600       40445939       40643089
 2735.3821       40428523       40537171       40835835       40599518
 2743.0979       40431064       40656090       40508889       40383674
 2750.8137       40748410       40670745       40589157       40862583
 2758.5295       40877841       40848568       41123528       41218784
 2766.2454       40972825       41173216       41310653       41159023
 2773.9612       41363891       41562162       41477036       41630872
 2781.677       41865204       41782305       41896529       42089116       41997388
 2791.3218       41963339       42177003       42191613       42077970
 2799.0376       42430785       42485878       42324550       42545293
 2806.7534       42538434       42421389       42612664       42628799
 2814.4692       42433791       42721596       42895034       42763233
 2822.1851       42964067       43159869       43046262       43105207
 2829.9009       43426994       43389514       43333430       43548632
 2837.6167       43643650       43752469       44076990       44232801
 2845.3325       44050742       44314813       44424672       44380609
 2853.0483       44848740       44981867       44889893       45220234
 2860.7642       45473181       45253251       45489784       45847420
 2868.48       45845754       46084836       46214744       46137407       46400409
 2878.1248       46848070       47034029       47420103       48033156
 2885.8406       48481062       49150888       50025657       50797947
 2893.5564       51401243       52041702       52205127       51924523
 2901.2722       51607262       50814148       50100286       49964365
 2908.988       49692705       49013961       48608843       48254743       47591090
 2918.6328       47151841       46814542       46367895       46273109
 2926.3486       46386242       46197340       46210788       46535816
 2934.0645       46684891       47151219       47829758       48228927
 2941.7803       48682209       49607605       50616447       51773362
 2949.4961       53641565       55732086       57724051       59615374
 2957.2119       60631849       60415097       59305128       56677740
 2964.9277       52748650       49617004       48134763       47490925
 2972.6436       47142845       47132589       47213499       47457121
 2980.3594       48075121       48598517       48989676       48865519
 2988.0752       48050355       47055691       46197858       45154683
 2995.791       44115882       43612190       43063857       42584270       42503577
 3005.4358       42560861       42354390       42070001       42086352
 3013.1516       41952372       41975688       42148232       42011593
 3020.8674       41975319       42300258       42464234       42374369
 3028.5833       42447601       42505257       42598408       42923637
 3036.2991       43219544       43300483       43459903       43686654
 3044.0149       43833654       44079751       44417724       44711366
 3051.7307       45195211       45957010       46591450       46676856
 3059.4465       46410896       46245210       46527728       47061920
 3067.1624       47493409       47742978       48044920       48569877
 3074.8782       48680950       48154887       47454655       47059476
 3082.594       46961907       46852317       46670701       46709441       46762753
 3092.2388       46667762       46671022       46853870       47098655
 3099.9546       47198322       47239438       47420941       47534991
 3107.6704       47686856       48008885       48212253       48432533
 3115.3862       48656754       48837010       49157754       49632136
 3123.1021       50151829       50545920       50965045       51316094
 3130.8179       51469658       51599350       51595490       51607363
 3138.5337       51888049       52394584       52747950       52918695
 3146.2495       53194776       53665701       54125160       54574359
 3153.9653       54858342       55105753       55679731       56161851
 3161.6812       56650523       57208143       57609446       58084831
 3169.397       58525790       58931496       59455592       60120605       60810372
 3179.0417       61315235       61911218       62513500       63118704
 3186.7576       63912325       64609818       65213524       65759189
 3194.4734       66557094       67690589       68521075       69175720
 3202.1892       69963798       70855863       71822509       72783872
 3209.905       73572591       74476294       75702406       76813526       77720754
 3219.5498       78786336       80150329       81570022       82691193
 3227.2656       83757445       84952705       86182997       87688833
 3234.9814       89033119       90210550       91653079       92973530
 3242.6973       94205238       95843054       97403765       98743416
 3250.4131      100370303      101886116      103255183      104718082
 3258.1289      106080219      107348517      108527876      109639362
 3265.8447      110522375      111568958      112732537      113464922
 3273.5605      114216767      115129001      115622059      116048515
 3281.2764      116482772      116451487      116535194      116903365
 3288.9922      116912931      116774045      116760164      116243824
 3296.708      115660444      115298390      114638798      113984771      113528959
 3306.3528      112808734      111872457      111078970      110259794
 3314.0686      109185629      108266331      107345633      106248677
 3321.7844      105370760      104286559      102941506      101793669
 3329.5002      100567386       99323601       98231338       97059265
 3337.2161       95695488       94227940       92821769       91265395
 3344.9319       89838766       88570476       87017938       85428044
 3352.6477       84098503       82590707       80942735       79640031
 3360.3635       78122444       76206885       74692860       73359214
 3368.0793       71878217       70692658       69340542       67654312
 3375.7952       66406295       65329209       64169735       62993534
 3383.511       61664555       60357731       59331723       58492076       57436157
 3393.1558       56407284       55554360       54515153       53578362
 3400.8716       52882940       52001983       50975312       50143883
 3408.5874       49502358       48690367       48201021       47625318
 3416.3032       46584949       46048485       45567084       44720270
 3424.019       44363521       43923311       43006711       42561326       42303290
 3433.6638       41544534       40838920       40457327       39961502
 3441.3796       39727166       39541479       38914483       38371008
 3449.0955       38125683       37576914       36928847       36846641
 3456.8113       36704395       36170393       35879459       35593431
 3464.5271       34959693       34579415       34380339       33709478
 3472.2429       33428263       33520248       33183850       33011198
 3479.9587       32856151       32299079       32137778       32246459
 3487.6746       31963862       31622559       31350799       30995408
 3495.3904       30818319       30797666       30285992       30022116
 3503.1062       30352453       30079290       29732579       29927077
 3510.822       29793153       29525697       29389272       29070763       28758679
 3520.4668       28742952       28699918       28546333       28674139
 3528.1826       28689785       28180417       27884804       27976671
 3535.8984       27827825       27641421       27637815       27574476
 3543.6143       27541958       27666481       27570317       27427815
 3551.3301       27495049       27376177       27278980       27434912
 3559.0459       27274260       27041016       27026013       26980255
 3566.7617       27272725       27699985       27233997       26690062
 3574.4775       26855608       26942791       26760243       26713083
 3582.1934       26689520       26602421       26815316       27213126
 3589.9092       26880534       26629725       27187496       27131125
 3597.625       26553165       26565542       26554750       26422068       26540030
 3607.2698       26501019       26334986       26603105       26854936
 3614.9856       26413044       26330136       26691284       26514206
 3622.7014       26400657       26398702       26057905       26699487
 3630.4172       27047435       26322555       26404729       26527286
 3638.1331       26410613       26498519       26492758       26115702
 3645.8489       26011994       26686924       27034529       26506912
 3653.5647       26149081       26185174       26081078       26186604
 3661.2805       26275769       25997704       26102722       26050042
 3668.9963       26104802       26291950       25936982       26175905
 3676.7122       26638774       26288016       25900546       25861349
 3684.428       25887743       25974013       26445597       26827563       26519576
 3694.0728       26334908       26527226       26398115       26341442
 3701.7886       26770573       26516903       25912341       26038840
 3709.5044       26266992       26344841       26408754       26078939
 3717.2202       26038397       26313543       26353244       26166193
 3724.936       26103020       26170349       25754672       25639394       25924694
 3734.5808       25962977       25879804       25611388       25444428
 3742.2966       25797021       26907427       26666231       25921652
 3750.0125       26471462       26651749       26193842       26038593
 3757.7283       26127076       26255846       26332164       26192065
 3765.4441       26282961       26356041       26596859       26645688
 3773.1599       26269240       26319064       26361456       26586214
 3780.8757       26727954       26509456       26544295       26524650
 3788.5916       26341559       26234020       26259968       26113046
 3796.3074       26167931       26259230       26415944       26739059
 3804.0232       26376642       26510637       26892189       26534561
 3811.739       26081562       26040155       26605267       26640261       26364131
 3821.3838       26742941       26444582       25955845       26133578
 3829.0996       26220609       26292264       26547613       26567278
 3836.8154       26759282       26991600       26844604       26667133
 3844.5313       26578344       26435109       26303560       26253724
 3852.2471       26578967       27041750       26462657       25951136
 3859.9629       25907325       25922541       26250055       26280524
 3867.6787       26055058       26334558       26464233       26286220
 3875.3945       26300227       26242090       26339272       26689226
 3883.1104       26716517       26816204       26733283       26475919
 3890.8262       26511759       26366768       26034351       26026355
 3898.542       26368046       26701532       26760228       26720800       26707266
 3908.1868       26356978       26009599       26054036       26172547
 3915.9026       26294945       26319129       26133979       25980256
 3923.6184       26206933       26384782       26166169       26191588
 3931.3342       26360365       26162190       25869034       25973307
 3939.05       25973180       26104277       26315439       26146093       26144955
 3948.6948       26310217       26284840       26229301       26338203
 3956.4106       26351875       26185988       26137698       26184604
 3964.1265       26105016       25993854       25908079       25949284
 3971.8423       26218424       26308335       26207747       26222527
 3979.5581       26179146       26124543       25980055       25876734
 3987.2739       25700115       25649197       25875622       26011795
 3994.9897       26221603       26246738       26013104       25990807
##END=$$ End of the data block
