##TITLE=3-Aminophenol, 98%
##JCAMP-DX=5.00 $$ ACD/DocManager Library v 8.12
##SPECTROMETER/DATA SYSTEM=TravelIR
##DATE=08 Nov 2002 11:41:44
##DATA TYPE=INFRARED SPECTRUM
##DATA CLASS=XYDATA
##ORIGIN=
##OWNER=
##NPOINTS=1751
##FIRSTX=625.01525879
##LASTX=4000.87011719
##MAXX=4000.87011719
##MINX=625.01525879
##MAXY=0.23718154
##MINY=0.02075141
##XFACTOR=1.0000000000
##YFACTOR=1.000000000000000e-9
##FIRSTY=0.12967248
##DELTAX=1.92905986
##XUNITS=1/CM
##YUNITS=ABSORBANCE
##XYDATA=(X++(Y..Y))
  625.0153      129672483      126562178      123932540      124571092
  632.7316      129579797      131738141      131914631      132659927
  640.4479      132505387      135153458      137765542      140527964
  648.1642      142117634      142170787      142916277      144580245
  655.8805      145793453      147145435      149493620      151196167
  663.5968      153272286      155331686      159793019      165042311
  671.3131      167438701      170352861      174608260      178542823
  679.0294      185179263      196409568      214729339      235250011
  686.7457      237181544      214629501      178850248      157906562
  694.462      160232112      153653711      135302171      127731591      128810495
  704.1074      131445065      134756833      137378111      139836147
  711.8237      142781854      145595387      148771599      152227819
  719.54      155542374      159007341      162640527      166309029      170113578
  729.1854      172363296      171112433      164939642      157290816
  736.9017      153323650      157013535      159857348      144940451
  744.618      128700584      128107056      133899420      140126616      146212012
  754.2634      152034119      157728016      163933262      170526460
  761.9797      177070722      184650213      193868026      204933107
  769.696      218023553      231878340      233313650      210805729      182504922
  779.3414      167386711      164087474      165963396      165568739
  787.0577      160883993      157308295      156891152      158065885
  794.774      160006374      162118405      164444476      166560650      168481693
  804.4194      170298874      171612099      172652170      173430085
  812.1357      173967451      174361035      174580589      174677268
  819.8521      175115466      175910041      176662073      177583441
  827.5684      179092899      181474373      185173690      190841720
  835.2847      198880717      208277419      214910373      213038370
  843.001      203185454      191816360      185481653      186433226      190009609
  852.6464      191761166      192468509      193606034      194825441
  860.3627      196029112      195871055      191227913      185943797
  868.079      185111985      186290383      186838061      186673418      185809791
  877.7244      183883473      181142494      179108277      179261163
  885.4407      182250574      187905341      194593802      200347871
  893.157      204313323      206224367      206069529      204162195      200570777
  902.8024      195519298      189528987      182802215      175382644
  910.5187      167543054      159371451      151067972      143069983
  918.235      135559946      128525913      121901698      115463145      109167546
  927.8804      102985255       96933760       91250904       86029492
  935.5967       81280306       76964661       73161080       69961905
  943.313       67244180       65027542       63365400       62009033       61100684
  952.9584       60973123       61834220       64367026       69712825
  960.6747       76576114       80245502       76463617       68287149
  968.391       63939542       65693364       66183403       61010286       55708241
  978.0364       52945651       51510748       50836273       50749708
  985.7527       51043909       50967418       50152477       49833905
  993.469       51073454       58761571       75243555       77636123       61679922
 1003.1144       52005235       50274782       50230902       50761007
 1010.8307       51087029       51251289       51103890       51045109
 1018.547       51136099       51403381       51693130       52054197       52491345
 1028.1924       52914940       53425785       53964622       54497860
 1035.9087       55278677       56215566       57079829       57945255
 1043.625       58969650       60155831       61351977       62588736       64061597
 1053.2704       65709747       67451134       69133349       70841268
 1060.9867       72781838       75181775       79079226       85721128
 1068.703       96790574      109978072      109168336       91577969       77398412
 1078.3484       72869733       72203189       72570905       72997957
 1086.0647       73295161       73604107       74091986       74711256
 1093.781       75658716       76920353       78368530       79939783       81574649
 1103.4264       83376087       85376821       87535530       89739755
 1111.1427       91955446       94187997       96639529       99382661
 1118.859      102459207      105763815      109237224      112975627      116987906
 1128.5044      121323489      126170263      131622940      137972012
 1136.2207      144546792      149478719      150461227      146714523
 1143.937      142081067      143482417      151805863      153683245      142629936
 1153.5824      121760301       96377857       81986159       83115935
 1161.2987       90784833       99598445      108944431      118945010
 1169.015      129148096      140381500      152806103      157750607      149569094
 1178.6604      134447262      116088264       96490890       78619376
 1186.3767       66207193       59151866       54009881       50566021
 1194.093       48672941       47576543       47262393       47788210       48982188
 1203.7384       50696325       52947637       55486746       58242884
 1211.4547       61362509       64613856       67903571       71264885
 1219.171       74617364       78007683       81611715       85586190       89848943
 1228.8164       94321787       99043049      103899479      108763255
 1236.5327      113684513      118989624      124913312      131442413
 1244.249      138247043      144989505      151807591      158384144      163508371
 1253.8944      165771320      163408831      154781163      139764503
 1261.6107      120606489      100974135       84147796       71704507
 1269.327       63110597       57248570       53085085       50250541       48532002
 1278.9724       47714092       47760006       48600089       50190333
 1286.6887       52613251       56049198       60562793       66168025
 1294.405       72291441       78927442       88079691       99219479      105833650
 1304.0504      101073198       89571871       80282770       72104290
 1311.7667       63929588       59061874       55503812       50359495
 1319.483       46244413       44485133       43854490       43864131       44180665
 1329.1284       44727199       45623478       46831977       48279349
 1336.8447       49878251       51586688       53256426       54819778
 1344.561       56433059       58138955       59934627       61787058       63623607
 1354.2064       65590084       67660652       69867074       72281271
 1361.9227       74972637       77877983       80705091       83795100
 1369.639       87278090       90698957       94335921       98248668      101701587
 1379.2844      104821146      107279480      109007783      109754205
 1387.0007      109275587      108244918      106401041      103382252
 1394.717       99342108       95260136       91238074       86715125       82909450
 1404.3624       79170786       75309888       71910597       69166526
 1412.0787       67179739       66249788       66450715       67472830
 1419.795       68684608       69403380       70541449       71450941       71948528
 1429.4404       72439425       73025212       74079610       76255947
 1437.1567       79501599       82178652       86044140       91413341
 1444.873       97716428      104989864      113416195      121124260      128658831
 1454.5184      134185359      138547197      147207305      154653117
 1462.2347      158227727      157043576      152377546      141811505
 1469.951      125876337      107036360       89816317       80123805       73456943
 1479.5964       70260338       68861805       68123035       68058908
 1487.3127       67722544       66630356       64481631       63145742
 1495.0291       63589402       65257788       68182200       72877161
 1502.7454       77973820       80987081       80794170       76938279
 1510.4617       70454612       62508523       57585951       56676473
 1518.178       58047805       59460737       58175355       55077337       52821551
 1527.8234       51822897       52218564       53566944       55522714
 1535.5397       56962635       58776461       60941584       61497219
 1543.256       62041827       63642003       65744929       68590567       72015323
 1552.9014       75139046       79131573       82585268       86975574
 1560.6177       91047898       93375705       96523531       99807210
 1568.334      103486583      108418159      112973630      116896503      122261859
 1577.9794      127886280      131783009      135040686      137635186
 1585.6957      140091062      142073423      142235547      139410540
 1593.412      134689465      130661681      128433526      126653701      123889469
 1603.0574      120198816      114166528      103060856       87453194
 1610.7737       72679020       62122915       56423664       51958304
 1618.49       46847377       43736007       41513659       38709644       36620148
 1628.1354       35389144       34359418       33997037       34205619
 1635.8517       33610690       32410715       32264110       32406144
 1643.568       32563817       32790206       32283001       31850047       32233991
 1653.2134       31919725       30638404       30406224       30349638
 1660.9297       30214531       29816205       29309884       29098941
 1668.646       28877564       28411919       28222341       28322272       28115245
 1678.2914       28057441       28165294       28392760       28418193
 1686.0077       27662100       27595112       27685661       27780443
 1693.724       28077161       27908064       27377162       27393384       26897067
 1703.3694       26698999       26873246       26755158       26864387
 1711.0857       27069088       27377309       27655264       27868647
 1718.802       27858442       27797762       27906951       28047986       28292214
 1728.4474       28544730       28708551       29062795       29421721
 1736.1637       29237101       29350406       29616047       29718716
 1743.88       29820126       29724263       29526992       29293777       29023545
 1753.5254       28724657       28650751       28528461       28395424
 1761.2417       28398035       28214557       28154133       28294897
 1768.958       28281447       28332843       28272513       28024638       28036349
 1778.6034       28097071       28162619       28291611       28506918
 1786.3197       28523032       28591080       28813442       28915411
 1794.036       28842902       28920365       29121181       29348942       29505612
 1803.6814       29525591       29669970       29816505       29891856
 1811.3977       29986450       30120440       30281132       30494519
 1819.114       30721454       30856006       31002609       31308737       31447049
 1828.7594       31637833       31951874       32163844       32320809
 1836.4757       32369774       32343920       32245185       32187287
 1844.192       32201517       32088429       32007810       31929526       31972725
 1853.8374       32238197       32400642       32319199       32419875
 1861.5537       32648239       32777511       32954626       33056386
 1869.27       33118688       33259172       33488736       33607360       33666030
 1878.9154       33785865       34007054       34140650       34275692
 1886.6317       34443095       34546852       34446202       34224451
 1894.348       34236584       34302849       34239553       34343962       34519475
 1903.9934       34679674       34817144       35133936       35665859
 1911.7097       35758112       35772063       36159705       36584146
 1919.426       36953244       37519354       38238604       38687270       38693108
 1929.0714       38226880       37490837       36735784       36370981
 1936.7877       36398258       36309153       36225982       36118381
 1944.504       36118254       36210049       36469258       36672458       36695451
 1954.1494       36525432       36532503       36835566       36932841
 1961.8657       36863144       37134405       37249755       36894888
 1969.582       36906004       36934178       37266996       37544332       37737880
 1979.2274       38343810       38241036       38066026       38456768
 1986.9437       38383387       38177293       38152087       38155381
 1994.66       38523953       38792618       38838908       39160658       39306972
 2004.3054       39322931       39096799       39043728       39336316
 2012.0217       39541535       39654173       39744940       39828237
 2019.738       39964903       40050734       40315934       40584333       40537857
 2029.3834       40703423       40802330       40806923       40668793
 2037.0997       40724616       40794250       40528733       40356331
 2044.816       40339839       40567037       40967185       40631801       39951261
 2054.4609       39969742       40140569       39845187       39853629
 2062.1768       39869044       40154550       40705465       40693384
 2069.8926       40707152       40915158       40866241       40908284
 2077.6084       41026916       41062482       41174836       41234560
 2085.3242       41241575       41373610       41689452       41706383
 2093.04       41538566       41579824       41971564       42194571       42122267
 2102.6848       41997060       42034846       42162910       42116083
 2110.4006       41978266       41995585       41990928       41855548
 2118.1165       41863494       42062260       42157315       42082205
 2125.8323       42099793       41994091       41870482       42051122
 2133.5481       42311188       42579032       42661767       42900279
 2141.2639       43421116       43097511       42802528       43534696
 2148.9797       44064373       43814793       43648813       43600921
 2156.6956       43417823       43736801       44852804       45254491
 2164.4114       45054279       44880215       45018084       45267787
 2172.1272       45097809       44984337       45430787       45473862
 2179.843       45180004       45513581       45845885       45954771       46119485
 2189.4878       46528723       46517875       46149474       46463162
 2197.2036       47101129       47268018       47165163       47291514
 2204.9194       47809351       47863584       47891956       48109729
 2212.6353       48105590       48196178       48366416       48342180
 2220.3511       48313089       48496719       48725847       48601586
 2228.0669       48309460       48296548       48410255       48294131
 2235.7827       48194334       48487399       48589353       48349813
 2243.4985       48343308       48657391       48731089       48610818
 2251.2144       48768938       49120855       49246281       49266249
 2258.9302       49382631       49552497       49743857       49968045
 2266.646       50076261       50277114       50382555       50555337       50896365
 2276.2908       50883029       50730854       50848234       51040191
 2284.0066       51093075       51031783       51058799       51059376
 2291.7224       50979871       51095817       51231228       51296350
 2299.4382       51462479       51659990       51692341       51932614
 2307.1541       52189849       52323204       52419301       52442286
 2314.8699       52460942       52514974       52751757       53062033
 2322.5857       53197589       53241022       53255942       53309385
 2330.3015       53404216       53382605       53407080       53652823
 2338.0173       53742509       53775575       54006863       54077130
 2345.7332       54070488       54070126       54223873       54547947
 2353.449       54683108       54810479       55229239       55355079       55273540
 2363.0938       55588361       56000818       56293134       56723170
 2370.8096       56982383       57186380       57436660       57722311
 2378.5254       58019079       58352478       58722273       58856785
 2386.2412       58944628       59202705       59439119       59629284
 2393.957       59943218       60229868       60475882       60730089       60850095
 2403.6018       60997952       61290510       61491992       61739955
 2411.3176       62012341       62267099       62581301       62891021
 2419.0334       63231423       63568957       63786685       64024672
 2426.7493       64395197       64788520       64978413       65246232
 2434.4651       65646082       65943912       66301063       66738561
 2442.1809       67022435       67289807       67720056       68177029
 2449.8967       68444051       68547785       68896838       69346048
 2457.6125       69736369       70037179       70372403       70687748
 2465.3284       71032323       71464717       71804158       72232194
 2473.0442       72852172       73393084       73899344       74403755
 2480.76       74860334       75136051       75289004       75539477       75745113
 2490.4048       75856246       75920127       76115698       76429531
 2498.1206       76477498       76484241       76610580       76722801
 2505.8364       76885000       76830849       76584905       76060779
 2513.5522       75293899       74692845       74271716       73742472
 2521.2681       73232733       72996885       72953403       73057711
 2528.9839       73342159       73643401       74160308       74636281
 2536.6997       75090669       75613596       76025456       76385729
 2544.4155       76832660       77415347       77946387       78641310
 2552.1313       79364538       79953045       80588542       81297852
 2559.8472       81907272       82484126       82940921       83201572
 2567.563       83425499       83626866       83723381       83793208       83794899
 2577.2078       83932132       84140390       84313445       84659822
 2584.9236       85030243       85344464       85583046       85649967
 2592.6394       85895836       86282060       86483754       86546689
 2600.3552       86622491       86630106       86518593       86284548
 2608.071       85829981       85468352       85093990       84582515       83870433
 2617.7158       82896255       81932187       81065834       80100030
 2625.4316       79004318       77735655       76465681       75288713
 2633.1475       74098587       72947688       71874149       70827201
 2640.8633       69839403       68875812       68031311       67443632
 2648.5791       67030884       66659391       66349000       66186219
 2656.2949       66092119       66068918       66208556       66400044
 2664.0107       66660315       67077503       67498244       67997701
 2671.7266       68560019       69064908       69508418       69965564
 2679.4424       70404924       70966668       71508259       72001465
 2687.1582       72598338       73237337       73880225       74490294
 2694.874       75084545       75722635       76344125       76807454       77145614
 2704.5188       77421576       77643916       77701628       77604838
 2712.2346       77399485       77016369       76426752       75720049
 2719.9504       74888207       73991023       73081225       72243325
 2727.6663       71579173       71154080       70925824       70716299
 2735.3821       70374638       69886647       69309846       68613611
 2743.0979       67739651       66885747       65980069       64986192
 2750.8137       63960575       62974066       62069066       61238583
 2758.5295       60656462       60251728       60010538       59948504
 2766.2454       60066026       60315371       60566138       60783569
 2773.9612       60860943       60695775       60607426       60618035
 2781.677       60618464       60550187       60486410       60518347       60517099
 2791.3218       60453787       60504198       60695823       60818236
 2799.0376       60935587       61165821       61435923       61765384
 2806.7534       62070932       62466994       62932841       63252591
 2814.4692       63668214       64278074       64800270       65208346
 2822.1851       65726139       66252612       66757187       67129172
 2829.9009       67420535       67651480       67748375       67866966
 2837.6167       67823313       67409061       66960864       66546984
 2845.3325       66110671       65560028       64938016       64269125
 2853.0483       63541733       62937714       62495090       62197324
 2860.7642       62005881       62004998       62185258       62403221
 2868.48       62543154       62736936       62834151       62735885       62579319
 2878.1248       62388502       62139940       61806165       61458193
 2885.8406       61088853       60612090       60315844       60172118
 2893.5564       60134426       60187388       60154647       60245954
 2901.2722       60504675       60799729       61125971       61484456
 2908.988       61911386       62326942       62691495       63053519       63368864
 2918.6328       63617133       64095609       64776346       65314017
 2926.3486       65816857       66206001       66372097       66569202
 2934.0645       67020886       67464247       67840725       68230234
 2941.7803       68490475       68510935       68419829       68255872
 2949.4961       68162024       68063565       67778841       67473292
 2957.2119       67171626       66673435       66095188       65534733
 2964.9277       64972006       64441033       63832201       63255794
 2972.6436       62887654       62684633       62540829       62438935
 2980.3594       62186264       61778527       61463483       61235934
 2988.0752       60771305       60338862       60063109       59818137
 2995.791       59670486       59532739       59425835       59641156       59881926
 3005.4358       60068637       60555995       61086029       61491985
 3013.1516       62040236       62677421       63141137       63671499
 3020.8674       64458989       65108649       65481365       65543734
 3028.5833       64963870       63784949       62351942       61449777
 3036.2991       61098088       61117951       61164990       60775436
 3044.0149       60138989       59299033       58328193       57623554
 3051.7307       57210725       56719206       55985570       55378765
 3059.4465       54833390       54187272       53755693       53477019
 3067.1624       53110119       52654319       52390844       52302722
 3074.8782       52191060       51914610       51478017       51183149
 3082.594       50998088       50718829       50395422       50063491       49799129
 3092.2388       49532976       49220785       48774373       48248347
 3099.9546       47860250       47702339       47491718       47268506
 3107.6704       47101144       47015291       47110956       47187477
 3115.3862       47094423       47030430       46989217       46800446
 3123.1021       46709783       46666469       46497591       46250705
 3130.8179       46024717       45913503       45919124       45849655
 3138.5337       45630258       45410912       45336556       45248684
 3146.2495       45182195       45202743       45322552       45237780
 3153.9653       44979680       44914134       45012411       45057569
 3161.6812       45047875       45075737       45159884       45333415
 3169.397       45313209       45132041       45071132       45022879       44971272
 3179.0417       44820994       44683423       44708535       44546977
 3186.7576       44373639       44263344       44062629       43886419
 3194.4734       43774951       43604016       43324061       43007631
 3202.1892       42740449       42667836       42771135       42611912
 3209.905       42472959       42566884       42547654       42397972       42365752
 3219.5498       42322244       42310614       42443868       42518616
 3227.2656       42531129       42634387       42771060       42824734
 3234.9814       42906664       42951725       43043707       43263957
 3242.6973       43458655       43523796       43779191       44177346
 3250.4131       44686139       45008209       45275420       45870204
 3258.1289       46586830       47124684       47619414       48474111
 3265.8447       49444105       50453302       51693227       53003449
 3273.5605       54351512       55968016       57820559       59594005
 3281.2764       61400671       63376367       65193623       66838466
 3288.9922       68367675       69537297       69885008       69114551
 3296.708       67358531       64851925       61711255       58284655       55008702
 3306.3528       52074086       49267143       46745915       44732362
 3314.0686       43319006       42250257       41380271       40917449
 3321.7844       40794183       40695153       40720060       41117892
 3329.5002       41654289       42337544       43331712       44759113
 3337.2161       46501096       48510630       51086430       54078255
 3344.9319       57402540       61448131       66191904       71993403
 3352.6477       79154693       86623959       92219770       93029238
 3360.3635       86272940       73229849       58823723       47130775
 3368.0793       39151464       34040056       30853290       28480306
 3375.7952       26452553       24992237       23937935       23077372
 3383.511       22498088       22242852       22193920       22215599       22280665
 3393.1558       22226617       22200510       22086065       21680288
 3400.8716       21313155       21245832       21272689       21244664
 3408.5874       21269316       21333003       21329336       21466998
 3416.3032       21547996       21540564       21508645       21469500
 3424.019       21473935       21430740       21197936       20985374       20930523
 3433.6638       20956436       21036444       20898324       20823704
 3441.3796       20881344       20986991       21071674       20969523
 3449.0955       20947676       21003569       20845018       20906540
 3456.8113       21059839       21090647       21058837       20964259
 3464.5271       21047659       21213148       21249659       21207027
 3472.2429       21044895       21045724       21287149       21215605
 3479.9587       20999325       21066273       21100521       21077728
 3487.6746       20930016       20808892       21068085       21073190
 3495.3904       20796267       20751413       20857906       21013744
 3503.1062       21073690       20946380       20989133       20981496
 3510.822       20909337       21034667       21058325       20891186       20994181
 3520.4668       21070734       21093540       21228699       21254489
 3528.1826       21143705       21080254       21092514       21211343
 3535.8984       21242457       21153824       21300523       21390505
 3543.6143       21491930       21497609       21326870       21265836
 3551.3301       21132760       20972567       21160303       21303391
 3559.0459       21309752       21446928       21698821       21997198
 3566.7617       22097064       21730518       21491678       21608204
 3574.4775       21722108       21653431       21679802       21663217
 3582.1934       21671297       21796165       21896038       21961886
 3589.9092       21755116       21718772       21893185       21765411
 3597.625       21587487       21727366       21827025       21865150       21900645
 3607.2698       21991499       21983014       21858880       21919744
 3614.9856       21869291       21866351       21978684       21589447
 3622.7014       21512875       21703564       22087442       22522427
 3630.4172       21971194       21791507       21984445       21940343
 3638.1331       21933796       21804571       21806741       22047268
 3645.8489       22383651       22395210       22133641       21793894
 3653.5647       21637961       21941265       21765796       21553002
 3661.2805       21653505       21674003       21797772       21942377
 3668.9963       22094136       21807482       21396739       21809932
 3676.7122       21539504       21170871       21317089       21519493
 3684.428       21596806       21770731       22094920       21680681       21471318
 3694.0728       21710116       21932114       21823470       21825584
 3701.7886       22187492       22174312       22126028       22389339
 3709.5044       22619760       22752542       22430778       22226837
 3717.2202       22407018       22533704       22488061       22371855
 3724.936       22298614       22183098       22036174       22312593       22465015
 3734.5808       22533989       22390960       22234406       22397304
 3742.2966       22702558       23017436       22406993       22504082
 3750.0125       22779495       22388007       22244392       22432903
 3757.7283       22728201       22835823       22762116       22894109
 3765.4441       23021976       23123117       23359383       23251034
 3773.1599       23303429       23388656       23262689       23446357
 3780.8757       23405522       23270097       23265479       23366859
 3788.5916       23546821       23507001       23373442       23514673
 3796.3074       23668472       23360910       23733979       23709338
 3804.0232       22654260       22728559       22859911       22771178
 3811.739       22925679       23063553       23320002       22845564       22931034
 3821.3838       23140155       22659652       22662569       22680789
 3829.0996       22800952       23176001       23287131       23267779
 3836.8154       23318181       23078902       22638300       22649946
 3844.5313       22756793       22838462       23042930       23311688
 3852.2471       23688376       23021661       22262380       22481004
 3859.9629       22822518       22850588       22856610       22612920
 3867.6787       22802334       23195324       22650052       22714339
 3875.3945       22629566       22477917       23280976       23135059
 3883.1104       22710424       23098765       22925803       22873724
 3890.8262       23280712       22916129       22736359       22972153
 3898.542       23209203       23180971       22956099       22808323       22662200
 3908.1868       22786774       22947676       22976134       22934787
 3915.9026       23131819       23218604       23063349       22961907
 3923.6184       23080392       23088548       23056392       23130381
 3931.3342       23195118       23079220       22775941       22927027
 3939.05       23119293       22987226       23081524       23188135       23247397
 3948.6948       23223557       23144687       23208199       23086239
 3956.4106       22990720       23225175       23239784       23071747
 3964.1265       23213359       23301456       23261245       23216506
 3971.8423       23167092       23151558       23142198       23059703
 3979.5581       23096368       23313817       23338700       23235692
 3987.2739       23275794       23280501       23202175       23154255
 3994.9897       23275811       23247469       23159582       23244370
##END=$$ End of the data block
