##TITLE=iodobenzene2
##JCAMP-DX=4.24
##DATA TYPE=INFRARED SPECTRUM
##DATE=3/6/2003
##TIME=12:58:47
##SAMPLING PROCEDURE=
##ORIGIN=administrator
##XUNITS=1/CM
##YUNITS=ABSORBANCE
##RESOLUTION=4
##FIRSTX=4000.1971
##LASTX=599.83669
##DELTAX=-1.9287354
##MAXY=0.8336578
##MINY=0.022592597
##XFACTOR=1
##YFACTOR=7.7640433e-010
##NPOINTS=1764
##FIRSTY=0.034042697
##XYDATA=(X++(Y..Y))
4000+43846609+43551716+43044244+42883672+43065560+43002084+42763200+42971984
3985+43546308+43945416+43941052+43643808+43304460+43063004+42926836+42899368
3969+43008956+43167260+43261916+43213792+42882160+42513092+42405864+42459492
3954+42730808+43202880+43414456+43136612+42803080+42733300+42755356+42760072
3938+42773428+42815424+42907360+42796240+42337140+42064900+42258568+42541476
3923+42818268+43200536+43158116+42396376+41850488+42065476+42440536+42764320
3908+43484824+44225860+43980256+43134780+42582096+42522264+43036504+43569588
3892+43222512+42702168+43250572+43755776+43451820+43449080+43220532+42783104
3877+43100524+43520000+43773084+43488580+42500972+42437160+42836340+42469820
3861+42168356+42697996+43954324+44831572+42913800+40680260+41051604+42259144
3846+43033664+43104168+43157144+43406276+42718396+41772888+41995240+42530900
3830+42662724+42771624+42837452+43052020+43204540+42523276+42535436+42967156
3815+42228076+41804932+42319768+42757156+42540040+42674932+43482160+43215560
3800+42498452+42596844+42554828+42608140+43008636+43090044+42981096+42960464
3784+42994916+43430420+43882092+43643408+43305184+43368984+43510812+43328384
3769+43167152+43289620+43275892+43553700+44203524+44395588+44531036+45323024
3753+45857832+44622204+43358212+44346504+45143284+43814548+43306480+44135696
3738+44529264+44018384+43457696+43389992+44133064+45273312+45578520+44975216
3722+44523380+44315432+44272916+44734520+45736928+46140032+44874596+43725348
3707+43762660+44265160+44243760+43465048+43186416+43662044+44247404+45021824
3692+45710404+45031296+43968824+44239100+44967412+45460324+46013676+46722184
3676+45973568+44167116+44083744+44081508+43210948+43095164+43322724+43343008
3661+43726356+44510748+44650728+44453884+45151020+45615264+43990684+42076976
3645+41881356+42514388+42876292+42915780+43132000+43262424+43125124+43393700
3630+43568980+42749388+42444964+42962764+43562168+43356912+42241060+41811440
3614+42117272+42315920+42284604+41730460+40908924+40493912+40215044+40010548
3599+40319556+40648812+40329880+40019648+40359660+40540228+39737220+38915988
3584+38684464+38583468+38643304+38876644+38873820+38522928+38467212+39124880
3568+39370472+38401708+37914908+38352000+38599576+38368076+38208020+38231892
3553+38058748+37845976+37923396+37869384+37434764+37094140+37017048+37036784
3537+37080000+37118264+37134720+37147152+37247824+37382328+37239660+36824832
3522+36473400+36316020+36411380+36762768+37066600+37062468+36850864+36684084
3506+36664648+36718476+36843568+37138712+37433700+37425636+37259152+37140240
3491+36880952+36640936+36796164+37188308+37463572+37493060+37502924+37648624
3476+37704300+37663392+37687248+37601944+37328400+37212252+37373596+37477972
3460+37353460+37223052+37272300+37223264+36973492+37028272+37426748+37700376
3445+37794788+37784304+37787728+38114960+38480848+38314728+37818296+37527140
3429+37659612+38088508+38461596+38556964+38338828+37891964+37491768+37400156
3414+37571356+37845580+38123988+38137232+37917684+37814124+37785688+37766324
3398+37774780+37669736+37578484+37744532+38074164+38310980+38327368+38197200
3383+38139272+38278704+38501312+38650736+38812672+39121372+39285268+39075968
3368+38878036+38937228+39013048+38979404+38930688+38894620+38755708+38477420
3352+38360216+38541108+38585324+38391564+38473100+38892516+39108072+38849340
3337+38528992+38647484+39047976+39319464+39406100+39350976+39170508+39029128
3321+39110076+39377588+39601000+39776524+40055496+40158516+39804660+39373156
3306+39271648+39325692+39298212+39261056+39312240+39472324+39661304+39683424
3290+39629592+39792992+40018248+40011912+39847800+39692472+39672968+39750576
3275+39785044+39872724+40011196+40001700+39891052+39831228+39821484+39778672
3260+39683168+39679872+39817692+39945696+40030640+40135408+40222960+40244600
3244+40305440+40475236+40528252+40358728+40217160+40205620+40173092+40138380
3229+40269252+40524384+40671368+40611956+40494592+40394672+40219092+40103236
3213+40297380+40658784+40764564+40508324+40265452+40317768+40539324+40750184
3198+40875884+40863832+40798996+40792936+40657128+40238548+39889160+39977496
3182+40376532+40715148+40743228+40539040+40367936+40401980+40625260+40767540
3167+40698760+40697792+40877716+41042052+41132728+41165024+41198904+41435428
3152+41850928+42235196+42459676+42500788+42513636+42486904+42303548+42169616
3136+42187588+42155776+42041068+42006676+42003256+41853764+41644000+41536328
3121+41518768+41542864+41536828+41444192+41420204+41544520+41617992+41659880
3105+41827572+41948448+41861776+41720476+41673456+41780716+42102068+42557236
3090+43061712+43527212+43875308+44457284+45710920+47677636+50334364+53874928
3074+58119040+61743516+63607548+64462456+65508272+66971056+69225400+72470872
3059+75168744+75551344+74030016+72336312+71099584+69486880+66784864+63276740
3044+59750808+56882600+55003956+53962780+53209368+52344044+51245028+49943140
3028+48770972+48107676+47893444+47862504+48222512+49137928+49890024+49610264
3013+48421076+47284996+46695368+46353872+46110664+46046516+46269268+47010228
2997+48254196+49414620+49684812+48881496+47638464+46634152+45991524+45404344
2982+44718804+44057416+43486092+43021992+42608504+42055376+41386708+40934248
2966+40807304+40685564+40383092+40033072+39788944+39656220+39433220+39114504
2951+38947380+38982660+39145800+39283764+39238956+39096848+39018764+39050296
2936+39066388+38814460+38199340+37445960+36814288+36353380+36076640+36017612
2920+36141296+36273936+36217340+36116012+36197884+36471268+37009852+37647840
2905+37875556+37650232+37435760+37470672+37573348+37601732+37657896+37729412
2889+37811908+38022596+38213472+38242712+38262992+38393640+38570856+38673884
2874+38698400+38727700+38730020+38571140+38354364+38327972+38321080+38014568
2858+37487668+36998808+36657848+36453264+36389852+36404976+36462620+36727808
2843+37215604+37663180+37962720+38294196+38711328+39002176+39089160+39146192
2828+39349192+39673580+39891880+39883352+39757696+39647236+39624832+39676120
2812+39750216+39817840+39855144+39887112+39885580+39837564+39874012+39950284
2797+39879132+39747924+39737148+39834592+40019432+40257424+40389324+40358148
2781+40274916+40211852+40178144+40237612+40405636+40547756+40619492+40740072
2766+40905840+40951752+40839232+40695464+40617624+40644768+40704280+40593852
2750+40329880+40175136+40150308+40113984+40053632+39964100+39898792+39914400
2735+39971336+40105320+40282652+40313504+40207984+40166968+40199028+40153712
2720+39927216+39610340+39475976+39546852+39635888+39752324+39927756+40029212
2704+40033580+40092888+40199460+40220060+40112876+39893848+39662628+39559380
2689+39615316+39718356+39785508+39854532+39896140+39870892+39879240+39939288
2673+39927072+39856144+39798680+39724764+39681704+39780752+39995472+40118356
2658+40104604+40200964+40418748+40584100+40741896+40949140+41145252+41256796
2642+41320368+41511120+41822004+42070220+42295932+42594868+42936768+43400404
2627+43947040+44286880+44272484+44030540+43792124+43653720+43584872+43649824
2612+43815124+43844480+43674588+43438740+43250500+43218732+43314080+43378888
2596+43434380+43611616+43911476+44288508+44781500+45463068+46237400+46701128
2581+46556500+46004304+45389012+45001696+45069020+45349052+45417072+45423940
2565+45618808+45714460+45559340+45363592+45161000+44998732+44982080+44976296
2550+44942080+45048892+45263948+45370420+45305056+45174624+45049616+44992124
2534+45090632+45291280+45580904+46055024+46539940+46692284+46351084+45670360
2519+45145892+45060352+45083688+45007444+44987244+45014164+45015000+44904436
2503+44689192+44702624+45088392+45550336+45723252+45598048+45549828+45670108
2488+45652344+45488820+45463536+45574276+45656684+45615884+45318000+44916032
2473+44871128+45160892+45238316+45034368+44907328+44800104+44552044+44340404
2457+44348960+44530056+44702664+44767596+44757520+44677456+44451612+44150196
2442+44070976+44398008+44866468+45034760+44931780+44843920+44710212+44485868
2426+44434032+44584652+44684028+44662936+44619388+44581548+44401292+43949924
2411+43466016+43348160+43670772+44103980+44221496+43909064+43484036+43352344
2395+43562060+43782780+43805672+43789808+43836256+43938488+44283784+44851728
2380+45139716+44914728+44531576+44111308+43559100+43144892+42984976+42885904
2365+42651824+42116840+41596268+41468496+41128028+40277136+39868604+40297452
2349+41017012+41555508+41712244+41576048+41296388+41024976+40967284+41062004
2334+41075604+40860392+40506924+40240340+40385208+41002156+41687788+42335272
2318+43149216+43931168+44243900+43971456+43481692+43190096+43224744+43428396
2303+43544760+43574420+43762268+44172244+44622820+45057168+45350316+45251772
2287+45113796+45412152+45883196+46262824+46657316+47003636+47170540+47275780
2272+47470644+47730608+48083408+48406288+48341868+48157712+48308028+48498960
2257+48521652+48467000+48271540+48172212+48456060+49028372+49641636+49967204
2241+49854888+49604976+49688268+49946708+49734004+49321424+49495624+50056744
2226+50368508+50247256+49708424+49114776+49029280+49313888+49597144+49887296
2210+50016708+49841952+49658572+49817168+50206880+50385360+50369168+50390436
2195+50240652+49912232+49846284+50045660+49963300+49319056+48636272+48787304
2179+49506000+49605924+49107896+48999356+49614564+50494388+50844108+50720860
2164+51110760+51914728+52093896+51368252+50472572+50172272+50153088+50017004
2149+50139152+50458848+50529236+50163004+49308788+48621072+48730804+48805860
2133+48076356+47315072+47240228+47597328+47894324+47933040+47927952+48061024
2118+48251068+48380512+48323516+48095648+47963628+48053652+47918292+47259236
2102+46761264+47041852+47704064+48172428+48411192+48577872+48693088+48636272
2087+48324380+47964972+47757876+47717352+47820088+47873212+47828292+47938740
2071+48278952+48700472+48916504+48667080+48284220+48384224+48815792+48972072
2056+48962896+49353944+50053248+50424884+50179636+49648520+49340908+49369528
2041+49582796+50060392+50711584+51101628+51145280+50783064+50091084+49847384
2025+50007124+49753096+49384716+49497912+49976680+50648800+51347744+51721852
2010+51462552+50599492+49607020+48944228+48630312+48648056+49125404+49735128
1994+49945072+49783416+49385920+48990808+49194572+49893384+50605552+51425120
1979+52162300+52263436+52088596+52448724+53256084+53997408+54389088+54546524
1963+54970224+55422076+55245728+54654852+54006036+53480592+53694000+54901632
1948+56401176+57647008+58655820+59163684+58882840+57859200+56256120+54593320
1933+53130760+51613616+50113700+48914752+47964828+47265592+46994784+46984884
1917+47044504+47168548+47115880+46732992+46342832+46258620+46335656+46421288
1902+46589152+46759380+46898404+47189700+47603388+48067272+48696328+49483600
1886+50378288+51339852+51998652+52032456+51731508+51418504+51002420+50743532
1871+51318992+52900560+54740628+56152164+56857944+56532368+55293652+53637480
1855+51842400+50150972+48865712+47949680+47221328+46508632+45613316+44796496
1840+44275908+43931604+43781628+43875128+44023580+44012180+43939644+43883708
1825+43834416+43927704+43967776+43837192+43928936+44484248+45351264+46147524
1809+46512516+46635748+46879584+47236640+47536924+47895772+48548416+49326452
1794+49765528+49587088+49105460+48449112+47378176+46099692+44996092+44013728
1778+43238392+42891192+42817700+42910776+43196868+43130272+42487156+41794876
1763+41091068+40282976+39811284+39524064+39208628+39027416+38837864+38576720
1747+38550352+38870460+39411360+40061444+40881876+41864860+42742256+42994700
1732+42552380+41829548+40958788+40243168+39659872+39268960+39266956+39276756
1717+38916780+38760572+39021628+39331840+39481056+39329732+39042536+39100920
1701+39213344+38841332+38449848+38203700+38150652+38300128+38400500+38589580
1686+38795124+38403072+37976136+37955976+38020956+37956440+37937208+38375036
1670+38804376+38645052+38394604+38186348+37649128+37121252+37069276+37394908
1655+37742528+37368252+37138460+37619812+37929500+37921648+38227864+38883572
1639+39666096+40247536+40160696+39831476+39846624+39880492+39669424+39100668
1624+37993764+36703308+36022588+35656316+34939916+34439452+34506148+34792084
1609+34971504+34846868+34505088+34122368+33919416+33805040+33577984+33358632
1593+33414268+33824308+34355884+34844352+35355300+36468068+40022152+49077324
1578+69857408+116984544+188469056+255870304+271030208+216155648+156334208
1564+117758976+98127608+88308480+77325496+68505424+62733156+57936964+54306596
1549+51851620+50405868+49422300+48303120+46658876+44877092+44183932+44439768
1533+45178748+47189736+50881572+55283268+58357872+58220588+54524144+49695600
1518+46408032+43844696+41898064+40914056+40450040+39982004+38279348+36859520
1502+36529280+36294108+35793316+34818096+33966784+33477096+33120616+32640718
1487+32145096+32021196+32386440+33763528+37030404+45752132+76054864+177073392
1472+349692576+413254496+331095584+222630240+148415248+111886784+92400208
1458+76939784+64329356+58224364+55238152+52930908+51051944+50471432+54269860
1443+75696544+133693584+212875760+233811872+177285488+132259936+110004016
1429+95147968+85324000+79049992+74256016+70157624+65786840+61360276+58624980
1414+56892048+55398404+54083084+52993036+52031288+50982988+50315360+50012264
1398+49755904+49376304+48797124+48421992+48617616+49352412+50226900+51132932
1383+52026200+52566248+52487324+51786952+50634488+49226788+48088384+47263088
1367+46616940+46313744+46191376+46042572+46022876+46435416+47326940+48774280
1352+51455828+56453180+62566348+65027640+61641476+55819684+50980432+47916040
1337+46360068+45685956+45383188+45542784+46549828+49313120+55891384+67028856
1321+77007456+77362448+69139912+60533600+55076132+52075492+50719908+50539276
1306+51116168+52153008+53340284+54086896+53779256+52518676+51122268+50070856
1290+49161192+48128640+47121356+46343332+45740944+45302268+45054960+44958592
1275+44977096+45252492+46046224+47446624+49464660+52217388+55297808+57249196
1259+57051524+55357064+53312560+51536872+50204724+49236588+48545248+48173664
1244+48115092+48310140+48756928+49368068+49932936+50263852+50338488+50170628
1229+49663900+48850676+48050272+47472680+46913412+46195688+45520536+45140144
1213+44968060+44793716+44599424+44390756+44144608+43923708+43872424+44022168
1198+44325716+44953860+46083260+47799928+50150608+52604120+54041392+53954964
1182+53049668+52336872+52299304+52737324+52954580+52402044+51305144+50262936
1167+49633176+49756344+50838048+52654232+54656476+55831740+55209480+53010040
1151+50445496+48443292+47194956+46436972+45774596+44975324+44248956+43893416
1136+43646332+43314368+43052740+42769784+42412632+42112960+41822968+41426704
1121+41051420+40755456+40379544+39943328+39636856+39584184+39646128+39752288
1105+40011764+40412404+40899172+41596876+43186028+45863724+48233332+48632640
1090+46989200+44696704+42844368+41558776+40599512+39978316+39863520+40266348
1074+41290824+43261592+47460772+57057656+75366448+99271896+124064456+158689376
1059+201762112+212783408+171866032+118625344+83618216+65937884+57490468
1045+53054060+50064144+47578560+45526144+43855944+42275832+40872412+39683996
1030+38684140+37864208+37582768+38443172+42373388+57242260+107075400+220492624
1015+353822016+359997024+247543104+153504448+108836736+90192056+84954216
1001+109499336+197311456+320156832+341984544+248182384+163831536+124411584
988+110348168+104720896+98815320+91359816+84240112+78630384+74455856+71388712
972+69153640+67733648+67368624+67777976+68323400+68112360+66825524+64793024
957+62610684+60609584+58636864+56812588+55403928+54507016+53686916+53002636
941+52953520+53075800+52790044+52121604+51553396+51250140+51189564+51626120
926+52580020+54135268+56222380+57950232+58226544+57279116+56441744+57094428
910+60590112+67902984+78796184+90028768+96424544+95488552+89128280+81138336
895+74027040+68369024+64085380+61156752+59030920+56987696+54998180+53209996
880+51775796+50660008+49717316+49039724+48638676+48408360+48254784+48250924
864+48526196+48885940+48839832+48496892+48629696+49545016+50807016+51507920
849+51224016+50433560+49886896+50398716+52102976+54302156+56519012+58339620
833+58867280+57866780+56054484+53691140+50952200+48702476+47259308+46094156
818+45095548+44411468+43837876+43117236+42209704+41440524+40947232+40399004
802+39688180+39129740+39031528+39300576+39744240+40160196+39909500+38687432
787+37141952+36002888+35285908+34454060+33387302+32482398+31891324+31474408
771+30935596+30305562+29873334+29477534+29123982+29099010+29400500+30158844
756+31155408+31718958+32375876+34389492+38445600+45385460+57110268+77095080
741+109870168+159353552+228020704+318547520+436700800+590577728+781529472
727+978503296+1073741824+957653120+722697600+514573312+377681248+294262528
714+239726640+201575152+175497504+160312048+153624784+148230704+137568064
700+124397856+116284208+117230768+126699312+142113824+167939072+226127680
687+342951744+502947264+595792512+528883584+397893088+295118592+230669872
673+191883600+169400512+154451536+142723120+136498048+131029016+124976168
660+132274080+191353168+338102656+503803712+495921440+360436608+255431920
646+199715360+168848352+149929536+138386304+132020336+129755992+128526200
633+123820456+117654248+112777672+104563240+94082728+89378416+86496448+74539512
617+60631832+69216872+107426160+151341104+162117984+132796856+105446384
604+102213904+99375192+86549296
##END=
