##TITLE=iodobenzene3
##JCAMP-DX=4.24
##DATA TYPE=INFRARED SPECTRUM
##DATE=3/6/2003
##TIME=12:59:11
##SAMPLING PROCEDURE=
##ORIGIN=administrator
##XUNITS=1/CM
##YUNITS=ABSORBANCE
##RESOLUTION=4
##FIRSTX=4000.1971
##LASTX=599.83669
##DELTAX=-1.9287354
##MAXY=0.8355307
##MINY=0.023101531
##XFACTOR=1
##YFACTOR=7.781486e-010
##NPOINTS=1764
##FIRSTY=0.034193229
##XYDATA=(X++(Y..Y))
4000+43941773+43673344+43288164+43241112+43355928+43349100+43444996+43892180
3985+44422068+44700516+44622784+44335332+44154160+43963760+43598596+43422768
3969+43507348+43549284+43689568+43968624+43927520+43568276+43306068+43253584
3954+43297508+43361252+43388256+43337992+43328892+43235788+43042076+43125340
3938+43272632+43331156+43577592+43691652+43397276+43226044+43222488+42989180
3923+42995004+43592552+43944512+43544644+43120556+43147260+43204872+43203148
3908+43653088+44253976+44132236+43687840+43387064+43141584+43347880+43678560
3892+43213212+42710004+43359916+44019592+43927240+43975644+43495660+42822280
3877+43263612+43894200+44166224+44030640+43232336+43154768+43659212+43369556
3861+42863372+43228956+44572224+45679424+43770596+41161380+41176956+42297356
3846+43318864+43714896+43839600+44094284+43700796+43012068+43195564+43705220
3830+43840792+43839456+43829712+44043964+44070992+43088572+42925732+43293808
3815+42406668+42031796+42846996+43415256+42949308+42830756+43608340+43441072
3800+42870416+43070100+43100684+43297796+43874296+44030104+43825824+43631112
3784+43518752+43805528+44109052+43785380+43484048+43735836+44153616+44144260
3769+43902400+43944108+44010272+44290704+44782584+44747404+44481756+44626776
3753+44774040+44129392+43642700+44753280+45548712+44180916+43612804+44649736
3738+45490384+45440984+44977728+44530756+44741060+45571380+46082776+45895760
3722+45371728+44670564+44313504+44787664+45774312+46141564+45241160+44363752
3707+44193736+44486516+44551724+43930044+43592124+44101020+45074556+46056256
3692+46394332+45522404+44720692+45106360+45861240+46273356+46484132+46981384
3676+46562956+45089880+44991648+44882292+43801712+43544608+43881816+44085648
3661+44448504+45064816+45085880+44914376+45829092+46342388+44025604+41564160
3645+41558608+42471276+42916936+42992412+43248840+43505696+43684136+44142064
3630+44095084+42896272+42524304+43257752+44098540+44029132+42774368+41887160
3614+41864896+42199648+42725200+42732024+41854060+41062040+40843420+40988652
3599+41304364+41516752+41283260+40742536+40605388+40883120+40488584+39466064
3584+38960552+39008744+39358288+39830428+40044976+39807352+39572504+39785668
3568+39825820+39158024+38711404+38741532+38836680+38983560+39198708+39161556
3553+38670044+38336756+38573224+38658816+38157672+37654264+37556476+37775956
3537+37917288+37671704+37460416+37835152+38420072+38416296+37956812+37706152
3522+37748900+37779440+37787664+37948156+38042736+37908136+37898128+38068344
3506+38095444+37954600+37735620+37555976+37560144+37574020+37473152+37471832
3491+37588184+37648284+37698180+37907352+38117632+38094872+38007408+37932880
3476+37829776+37854840+37942672+37851844+37665792+37630068+37741992+37879152
3460+37893964+37743564+37626368+37572848+37538864+37648464+37865516+38074036
3445+38290192+38380624+38243660+38151864+38120628+38004452+38078920+38368328
3429+38593260+38789072+39113352+39405440+39243032+38715724+38420748+38542356
3414+38854728+39038960+38839460+38522252+38567808+38813108+38851656+38726704
3398+38568124+38380732+38270344+38354044+38572296+38798308+38963868+38975352
3383+38861788+38901736+39241500+39661152+39949272+40099448+40000876+39701188
3368+39637184+39852868+39909540+39697224+39494768+39434216+39363140+39251740
3352+39273656+39416512+39481024+39491556+39639644+39812104+39848972+39841684
3337+39788560+39662824+39614864+39764268+39938012+39859300+39671044+39677828
3321+39888564+40219952+40518820+40601632+40561560+40510084+40284348+39877880
3306+39609108+39650720+39858692+40050088+40184388+40247980+40183028+40109988
3290+40294540+40632680+40778248+40708432+40546428+40454108+40615436+40860784
3275+40918516+40853012+40869048+40926144+40816760+40567500+40398240+40383436
3260+40397028+40380468+40434828+40562312+40656152+40684352+40672896+40639444
3244+40587640+40542524+40616300+40819440+40889204+40722852+40568252+40595368
3229+40726288+40785732+40697372+40594400+40631792+40734840+40716588+40646212
3213+40820664+41150024+41147844+40847788+40757748+40973756+41196872+41256180
3198+41223124+41195476+41180684+41088004+40841172+40617480+40564992+40548072
3182+40556624+40685640+40779248+40808204+40985032+41206468+41292684+41376116
3167+41481780+41504528+41524316+41608644+41736144+41884220+41993200+42158532
3152+42514720+42919520+43201744+43345792+43318036+43041540+42655960+42488584
3136+42598328+42745096+42746244+42662604+42628032+42582284+42420992+42228640
3121+42151576+42184184+42225268+42210772+42196096+42311996+42432840+42390416
3105+42395760+42512812+42480540+42381976+42477168+42670432+42874184+43226012
3090+43715828+44095008+44318120+44827068+46023564+47904680+50533196+54225704
3074+58626792+62230336+64094776+65050656+66104076+67466032+69654504+73029512
3059+76072680+76752800+75266168+73337616+71752840+69974112+67318032+63830272
3044+60238352+57279132+55262908+54093524+53370040+52603828+51503860+50168140
3028+49006136+48349400+48153032+48270324+48839560+49769140+50313888+49921760
3013+48949840+48053824+47431308+47030244+46862412+46817880+46851852+47355044
2997+48556576+49757580+50052380+49465940+48490064+47385964+46447332+45792548
2982+45190944+44542216+43962540+43545292+43164940+42690220+42223116+41824872
2966+41475904+41159052+40855020+40644988+40548432+40375924+40044616+39793776
2951+39772088+39842936+39857012+39658752+39215732+38878656+39006780+39407652
2936+39518840+39134940+38529308+37923972+37373760+36935312+36638656+36474992
2920+36434504+36474100+36494240+36505208+36592476+36813704+37331332+38010144
2905+38330696+38234116+38114932+38062644+37955060+37922948+38061468+38155744
2889+38143632+38213412+38384044+38530804+38638640+38796772+38988588+39047804
2874+38973356+38940824+38975176+38944072+38791816+38627340+38498584+38282424
2858+37921808+37513744+37197536+37070248+37056064+36932048+36765452+36967060
2843+37634408+38337184+38708952+38904624+39211984+39543544+39744548+39933832
2828+40168472+40294036+40269544+40220276+40237400+40252452+40183344+40186276
2812+40336552+40408076+40400348+40562996+40767264+40759924+40699560+40694044
2797+40636980+40568000+40508904+40504612+40710548+40972112+40961048+40745400
2781+40635368+40651080+40633936+40652832+40777924+40871160+40901944+40998284
2766+41174092+41262452+41151028+40955460+40870556+40946940+41009708+40920776
2750+40831964+40853584+40808636+40628104+40504936+40529296+40596160+40640268
2735+40686064+40715052+40726464+40778644+40841852+40869624+40825312+40631288
2720+40365376+40245196+40281200+40326688+40408896+40552616+40651040+40657232
2704+40546676+40409436+40476360+40698272+40767124+40638628+40449712+40242124
2689+40105776+40124792+40282020+40428180+40380892+40271372+40313060+40373496
2673+40308556+40275728+40316496+40289964+40266688+40325720+40377644+40376320
2658+40420772+40607356+40795396+40885480+41024920+41290716+41582368+41759156
2642+41830500+41934276+42079112+42202772+42369272+42651012+43048324+43616544
2627+44280552+44712516+44752524+44542216+44255920+43990432+43821796+43878220
2612+44098396+44209468+44149700+44010416+43907224+43967940+44077156+44089900
2596+44102820+44260316+44547112+44831348+45189972+45820716+46625012+47217492
2581+47215208+46629392+45885828+45417952+45420772+45634048+45688812+45816240
2565+46174080+46285132+46018756+45679424+45312596+45028648+45091288+45377180
2550+45559000+45610724+45617872+45554168+45525788+45682744+45868928+45850404
2534+45655596+45480856+45585420+46095528+46745744+47047252+46776780+46214952
2519+45803852+45753048+45878972+45763948+45345428+45070156+45185720+45361268
2503+45351092+45330276+45475084+45754092+45980144+46074640+46067240+45943912
2488+45785148+45685712+45692496+45804212+45865460+45687364+45333372+45098720
2473+45101244+45183552+45175940+45122308+45097560+44982092+44835532+44874436
2457+45024104+45162448+45387212+45616144+45595928+45388332+45145928+44918964
2442+44903168+45143444+45385736+45517020+45488252+45179804+44823244+44830744
2426+45193364+45501540+45455308+45174136+44922060+44737348+44529424+44338648
2411+44164856+43962972+43937964+44121792+44152144+43895996+43635360+43638740
2395+43874548+44105484+44191788+44178756+44151500+44252432+44543112+44893400
2380+45282716+45667080+45665784+45194736+44798768+44601844+44110632+43174432
2365+42276900+42232616+42818544+42920100+42291292+41471420+41184372+41696708
2349+42504848+42913228+42672084+42530480+42843220+42885712+42585088+42424660
2334+42430504+42368412+42290784+42117960+41927576+42122372+42677076+43301356
2318+43900276+44404668+44581524+44346316+43989212+43726700+43667268+43855944
2303+44097960+44306804+44573096+44819320+44910416+44947580+45047436+45122380
2287+45269804+45739688+46378760+46870772+47214992+47380316+47270312+47339176
2272+47997232+48789820+49233760+49335172+49291676+49388232+49475500+49304396
2257+49252292+49442204+49526656+49526064+49511312+49525452+49881644+50465604
2241+50776088+50846548+50909380+50803156+50565388+50625740+50971664+51111492
2226+50919804+50554608+50025604+49577000+49595252+50042740+50508172+50570848
2210+50284292+50077276+50050236+50151184+50417500+50599660+50362012+49754668
2195+49423272+50016796+51139052+51767292+51514004+50992324+50924936+51141384
2179+50987264+50472412+50539744+51665800+52736644+52676604+52029888+51816604
2164+52151508+52586936+52690140+52048916+50950560+50488648+50834416+51165232
2149+51168080+50937404+50623628+50485412+50273404+49724076+49293784+49190920
2133+49052336+48862764+48685528+48358500+48019924+47987292+48312728+48627704
2118+48599432+48434220+48410388+48433496+48319248+48126812+48054480+48092808
2102+48094584+48172936+48425804+48620848+48653844+48563180+48406468+48259040
2087+48085552+48078592+48377804+48701320+48856516+48801080+48533424+48402876
2071+48843448+49603904+49922636+49505236+48862116+48661064+49054664+49745500
2056+50335256+50699832+50900592+50865644+50674916+50544480+50485192+50414516
2041+50430936+50815508+51481724+52024564+52247316+51948096+51066944+50242792
2025+50103432+50355136+50211164+49460456+48956020+49585000+50932664+52017952
2010+52455360+52125860+51086812+50074212+49628084+49399396+49018816+48652500
1994+48614028+49070788+49722264+49962292+49860652+49922488+50283668+50987700
1979+51860116+52160160+51886036+52024632+52719452+53435864+54006080+54677068
1963+55612384+56033124+55347176+54406764+53949648+53877172+54325352+55494424
1948+56795940+57801560+58658648+59032436+58757800+57995624+56591276+54860620
1933+53304240+51957812+50787016+49862328+49143328+48595880+48315840+48096176
1917+47728076+47434604+47237216+46992132+46812236+46863860+47062560+47126588
1902+47053876+47187336+47556196+47851508+48121192+48765968+49786820+50726756
1886+51461396+52062648+52271388+52002868+51571616+51209456+50966452+51145252
1871+52158988+53879008+55510300+56606404+57167048+56947768+55861248+54274360
1855+52484888+50684456+49172756+48027028+47132200+46322108+45616360+45357404
1840+45311580+45025904+44655572+44596840+44689700+44510184+44129028+43896676
1825+43930404+44166400+44356116+44475016+44714964+45188280+45947196+46710696
1809+47049604+47154280+47417544+47844588+48275472+48714932+49285604+49950836
1794+50375012+50104492+49389512+48667268+47779420+46695396+45619428+44548196
1778+43648456+43242476+43229532+43382860+43657552+43588708+42917008+42148672
1763+41388512+40600740+40173620+39846472+39477060+39440960+39550544+39326124
1747+39009068+39116104+39677364+40460476+41382776+42447844+43462260+43737020
1732+43061480+42200828+41375504+40704752+40106416+39767556+39941548+40086476
1717+39624148+39264016+39363604+39599684+39836324+39873376+39718260+39910648
1701+40202152+39847832+39388948+38996328+38658320+38652360+38833400+39253168
1686+39735760+39302208+38446756+38222504+38378164+38389356+38302512+38801728
1670+39438144+39310348+38930980+38676788+38200412+37658924+37504460+37900408
1655+38666588+38623844+38176976+38511844+38780580+38650584+38865920+39533476
1639+40450636+41309984+41394528+40889844+40673688+40554800+40300652+39776988
1624+38710264+37484568+36942140+36744488+36047828+35328604+35206036+35450144
1609+35604472+35395136+34971452+34524664+34296096+34205404+34016500+33843768
1593+33901956+34233416+34692220+35125040+35531820+36604268+40300116+49575692
1578+70569640+117766936+189009728+256084368+271033664+216125072+156495024
1564+118283768+99052832+89561280+78409296+69168424+63304788+58535388+54924564
1549+52516540+51102780+50152308+49208864+47891344+46105748+45064168+45064132
1533+45692352+47666296+51448960+56112324+59409772+59336072+55649692+50653720
1518+47054452+44261828+42202088+41216316+40899512+40622736+38876516+37205220
1502+36664732+36305332+35809876+34948288+34252200+33985420+33823908+33311718
1487+32703940+32548722+32872574+34142132+37308776+46093796+76631816+177839712
1472+350343264+413478592+331171520+222946896+148980784+112524384+93128248
1458+77862488+65225692+58944364+55937624+53717532+51850000+51068692+54649076
1443+76039624+134091640+213374640+234452384+177841296+132581864+110192968
1429+95388712+85605848+79238304+74383184+70368736+66082504+61662324+58963292
1414+57264164+55706700+54350840+53437220+52750392+51794560+50996588+50469832
1398+49989540+49497604+48977012+48707380+48944688+49678156+50544120+51499160
1383+52511968+53138832+53006320+52150956+50885548+49470776+48373200+47584420
1367+46965108+46687472+46600320+46471664+46440680+46843200+47688976+49080848
1352+51833108+56925852+62996904+65423740+62123728+56443372+51769004+48765644
1337+47084280+46252208+45854084+45939932+46892268+49688988+56353532+67505152
1321+77431432+77783200+69648320+61142256+55753380+52851384+51588436+51368712
1306+51844124+52858484+54038876+54704552+54284624+52941500+51540240+50564840
1290+49713424+48649412+47572936+46767952+46217444+45872104+45697260+45614876
1275+45569108+45773988+46553884+47896380+49744844+52382460+55568764+57692948
1259+57479732+55653692+53609232+51941492+50659212+49753944+49172504+48787604
1244+48612032+48704624+49076820+49707212+50358776+50711816+50740820+50496408
1229+49948180+49206652+48484004+47854552+47234216+46628632+46127684+45785688
1213+45564956+45371336+45168224+44928116+44739980+44747224+44899748+45030380
1198+45185496+45655888+46603424+48167244+50432104+52868432+54449088+54603728
1182+53846036+53124456+52983824+53349512+53537796+52942232+51833468+50830332
1167+50228816+50305876+51280788+53006104+54968716+56161028+55612828+53537316
1151+51105364+49128216+47732532+46753048+46018400+45454404+45020388+44631824
1136+44137452+43652408+43381276+43155424+42878780+42701420+42541284+42196812
1121+41793432+41507724+41290820+41018904+40653972+40306088+40031540+40058312
1105+40466876+40876640+41321200+42269184+44105776+46622484+48648936+48850928
1090+47179984+44997672+43279388+42012856+41141828+40741708+40609960+40757780
1074+41715528+43837524+48120144+57673912+75873208+99658560+124469640+159219440
1059+202320224+213286944+172309280+118963712+83948568+66365036+57849928
1045+53244660+50275620+48005892+46117280+44406576+42770128+41439708+40372704
1030+39478524+38669692+38219332+38767568+42453980+57333832+107333152+220819824
1015+353993856+359893760+247329568+153419184+109071528+90738664+85701496
1001+110379616+198158480+320776064+342311200+248223344+163725152+124439920
988+110624864+105198816+99592304+92315888+84970328+79099264+74942720+72003288
972+69791288+68204200+67623688+67974712+68596400+68576536+67547016+65514828
957+62982492+60598344+58572808+57177884+56190084+55297768+54401592+53737312
941+53727748+53833140+53383888+52550164+51975704+51855628+51868036+51978736
926+52652080+54333352+56588812+58302384+58585932+57728176+56999092+57727144
910+61184348+68391688+79092208+90145504+96683656+95929432+89365992+81043272
895+73806848+68342128+64457360+61695576+59475164+57524912+55786872+54101588
880+52712068+51769188+50837988+49668664+48692464+48383936+48550804+48855392
864+49112304+49184380+49088984+49012492+49177336+49838900+51067348+51961680
849+51730764+51036352+50772072+51265292+52597576+54518080+56649628+58556112
833+59294008+58319892+56411308+54340868+52044724+49730768+48071004+47155400
818+46454776+45587984+44664944+43837116+43074708+42446800+41915240+41419356
802+41048580+40797364+40593900+40452280+40573156+40975336+40885412+39662180
787+38071292+36970332+36082320+35021352+33927160+33067096+32552178+32191368
771+31600298+30913574+30476382+30060768+29687814+29773982+30208132+30646838
756+31108008+31676202+32565614+34521908+38472140+45444300+57397360+77837296
741+111034176+160500592+228791344+319285664+437822368+591301952+780521088
727+976710464+1073741824+958601792+723956672+515945408+378250208+293963360
714+239556160+202078304+176260112+161000352+154366720+149304416+139246336
700+126572208+118443704+118906904+127640296+142531584+168212656+226114352
687+342438560+501828864+593296896+524766016+393516704+292165728+230178304
673+193593920+172294672+157271344+143655776+135720160+130023616+124484368
660+132023040+190273040+334932288+498325536+491074816+359104224+256390576
646+200349968+169420064+152666400+143294736+136051600+129876040+127234392
633+127920024+124285320+110764160+95184320+88827696+91371984+89431504+77883680
617+71180920+83542736+112956184+140553152+143831200+125109584+108810952
604+105487808+102048568+92594560
##END=
