##TITLE=iodobenzene1
##JCAMP-DX=4.24
##DATA TYPE=INFRARED SPECTRUM
##DATE=3/6/2003
##TIME=12:58:4
##SAMPLING PROCEDURE=99
##ORIGIN=administrator
##CROSS REFERENCE=EP 00411DM
##XUNITS=1/CM
##YUNITS=ABSORBANCE
##RESOLUTION=4
##FIRSTX=4000.1971
##LASTX=599.83669
##DELTAX=-1.9287354
##MAXY=0.83011359
##MINY=0.02241757
##XFACTOR=1
##YFACTOR=7.7310353e-010
##NPOINTS=1764
##FIRSTY=0.033871554
##XYDATA=(X++(Y..Y))
4000+43812443+43812916+43738496+43644144+43573728+43327584+42976760+43045616
3985+43439096+43539064+43357604+43305124+43416164+43439792+43312392+43200072
3969+43186764+43217860+43313768+43386472+43184848+42853336+42663792+42605668
3954+42792804+43328200+43743856+43502192+42983916+42713828+42676216+42734784
3938+42782944+42962772+43353916+43452412+43007700+42663136+42675680+42682724
3923+42781932+43036400+42799132+42173712+42278392+43021976+43484284+43743564
3908+44243672+44475676+43958892+43337240+42868804+42526856+42674012+42960020
3892+42590060+42179920+42713572+43052272+42790636+43184668+43274096+42977660
3877+43517756+43938720+43872436+43578432+42864288+42868080+43191212+42735796
3861+42340420+42694784+43810168+44809532+42994212+40474004+40606116+41844240
3846+42888348+43299048+43621708+43976848+43442864+42837940+42944408+42902196
3830+42786844+43037668+43099696+43099668+43033184+42206412+42324460+43056716
3815+42445960+41998396+42630772+43212944+42902592+42817128+43420224+43057944
3800+42527396+42786160+42676508+42606496+42942456+43090624+43236596+43347876
3784+43092292+43124860+43403256+43161384+42837364+43054404+43617652+43868124
3769+43843900+43936548+43948932+44302652+44712208+44130728+43515004+43984272
3753+44722216+44348808+43803900+44784036+45096704+43072336+42300200+43256556
3738+43788664+43334276+42885100+43033360+44158908+45750664+46256344+45517332
3722+44878760+44547768+44431172+44804452+45639956+46110352+45354468+44392508
3707+44100556+44372868+44592680+44202704+43875800+44093200+44565312+45038252
3692+45238652+44816276+44501412+44947492+45519072+45812524+46229116+46955160
3676+46268048+44480212+44369244+44215080+43170164+43106792+43496804+43510592
3661+43772264+44510544+44563860+44136848+44629472+44960400+43142760+41258584
3645+41465568+42577100+43358944+43632384+43706136+43550060+43469564+43980288
3630+44061188+42969460+42610580+43167564+43956752+44180092+43180948+42188980
3614+41950908+42159784+42428120+41934352+40790392+40163472+40126604+40315220
3599+40663600+40823124+40519488+40121212+40120456+40260148+39840520+39111152
3584+38662972+38513420+38666056+38939516+39072492+39027232+39100276+39496460
3568+39436120+38443280+37908224+38116884+38244396+38184616+38157808+38066572
3553+37837836+37589116+37540464+37775128+37932544+37804496+37709384+37756792
3537+37655924+37242640+36964536+37212836+37584172+37541436+37162972+36899920
3522+37014852+37318712+37504064+37565024+37637952+37614572+37360864+37013424
3506+36832056+36888404+37018928+37184500+37414368+37585248+37590512+37377508
3491+37084664+37000368+37175952+37365768+37322184+37225608+37390060+37505848
3476+37275308+37063956+37199600+37498480+37601544+37523608+37564204+37668956
3460+37645756+37589332+37541580+37329664+37036308+37109208+37612888+38049092
3445+38125444+37888240+37568388+37609776+37931544+37956588+37624884+37338928
3429+37390176+37749096+38161316+38469560+38512380+38144080+37614960+37262536
3414+37165328+37302644+37526044+37696280+37920620+38104344+37926708+37625956
3398+37687220+37946696+38053028+38059552+38058796+38069440+38167016+38352104
3383+38547380+38676208+38754984+38940916+39305964+39637512+39659288+39434716
3368+39274756+39261688+39211564+39042340+38921824+38944076+38960472+38892900
3352+38813424+38799468+38776224+38685604+38779272+39062696+39164564+39048372
3337+39001100+39134628+39325604+39573016+39861048+39913820+39697268+39501780
3321+39510836+39721884+39956128+40029300+40034872+40090532+40023512+39734964
3306+39420496+39216268+39128816+39236052+39495352+39677900+39717000+39747112
3290+39978352+40349472+40418552+40148468+39912376+39850232+39967528+40109844
3275+39984892+39698240+39658528+39901196+40116712+40180696+40159904+40035592
3260+39823204+39701436+39710888+39711356+39721344+39859900+40082408+40184792
3244+40108084+40110060+40308708+40420928+40275220+40070036+39941140+39890668
3229+40022932+40236984+40249392+40165836+40223460+40305580+40299108+40324360
3213+40469432+40589088+40436288+40205620+40327492+40630340+40759968+40802564
3198+40822044+40773044+40739344+40691136+40513872+40259932+40082660+40107288
3182+40271588+40306120+40178496+40139508+40226876+40398728+40672884+40858804
3167+40841420+40786584+40845952+40987696+41052820+41017348+41052248+41252780
3152+41621896+42189664+42837400+43232688+43203720+42929844+42660172+42469036
3136+42360960+42367460+42368976+42235328+42104312+42083852+42064904+41989228
3121+41905744+41822812+41758108+41784288+41866780+41929376+41982880+41973716
3105+41922376+42009548+42196564+42319044+42383056+42461884+42646920+42921968
3090+43198228+43522920+44004408+44777368+46027308+47883020+50435888+53948680
3074+58275948+61998984+63912728+64772852+65801256+67309152+69646712+72992248
3059+75924120+76511552+74893840+72900320+71414880+69748800+67138648+63710924
3044+60113648+57019980+54978596+53975808+53338160+52482496+51308184+50000364
3028+48867676+48175484+47934904+48046872+48654724+49706908+50454024+50174132
3013+49080336+47941180+47088776+46472164+46170548+46158008+46353716+47076976
2997+48518372+49850620+49984116+49113476+48137620+47319520+46604788+45967920
2982+45285548+44491116+43687828+43153464+42948924+42777920+42446072+42059888
2966+41765748+41441992+41035820+40741900+40606368+40551156+40446620+40231372
2951+40082372+40118800+40158788+39949156+39600792+39477496+39643728+39781400
2936+39594036+39086852+38442064+37859940+37422060+37063956+36798268+36686956
2920+36703576+36702972+36595356+36556156+36664976+36845068+37234268+37826664
2905+38206976+38163112+38014944+38052568+38137736+38136700+38179488+38282392
2889+38323832+38344832+38438696+38570404+38670324+38759252+38858488+38907652
2874+38951004+39085092+39209520+39183776+39069624+38912284+38601640+38215112
2858+37904568+37574804+37176344+36827660+36601108+36488512+36505236+36774244
2843+37320572+37824592+38070016+38377424+38927460+39352720+39465960+39528076
2828+39688284+39821400+39890988+39950168+39919536+39831784+39903828+40095748
2812+40186736+40193716+40205796+40197560+40151812+40081040+40013692+39976660
2797+39996220+40058464+40075180+40125636+40396136+40708992+40759392+40643480
2781+40552884+40449996+40334108+40314752+40360624+40376384+40403472+40478784
2766+40570948+40647724+40640348+40531436+40438340+40491920+40634476+40662772
2750+40550580+40452412+40379044+40223892+40017680+39949048+40116460+40303024
2735+40331048+40331732+40342956+40287092+40250112+40321660+40417396+40384692
2720+40183248+39974324+39916124+39942112+40011892+40177240+40310148+40277628
2704+40156484+40089780+40105244+40105960+40104780+40183756+40184252+39998084
2689+39867268+39942072+40097540+40166092+40053716+39893148+39897028+39992588
2673+40003408+39976692+39969000+39919276+39814784+39733528+39785312+39937368
2658+40113512+40328176+40485292+40516320+40611512+40958240+41367380+41530852
2642+41537956+41619368+41767268+41926268+42164760+42491428+42849576+43346792
2627+43960408+44347980+44319424+44062024+43846400+43762600+43835468+44043336
2612+44159268+44063104+43888248+43682720+43501256+43491308+43620768+43779396
2596+43938620+44117616+44320004+44448212+44602904+45130812+46063216+46930840
2581+47165716+46685664+45976832+45522996+45435460+45449040+45318028+45254804
2565+45383476+45390516+45227800+45083564+44935956+44869328+44986052+45093468
2550+45057192+45001688+45078232+45235640+45306852+45282932+45202540+45075364
2534+45046268+45194304+45446784+45834436+46283720+46401572+46049872+45572852
2519+45258032+45164080+45192384+45234120+45266240+45167964+44907300+44738312
2503+44872884+45193724+45426860+45488320+45534032+45742348+46001648+46029704
2488+45864952+45760004+45748124+45742312+45720084+45605756+45435460+45358972
2473+45301372+45154140+45010868+44981044+44975492+44863600+44763008+44805868
2457+44909912+45036584+45252336+45417164+45333164+45084544+44775916+44473356
2442+44402256+44640784+44930624+45112520+45246092+45229400+45021388+44909408
2426+45045076+45171408+45052188+44862368+44850764+44911584+44775948+44429868
2411+44094396+43892308+43835032+43883548+43872436+43699660+43525924+43585736
2395+43849552+44027180+44007480+43978732+44060388+44312144+44817904+45489772
2380+46068264+46334228+46324296+46137612+45912296+46030428+46128820+45481168
2365+44811708+44701400+44576764+44425888+43964500+42888060+42195984+42433320
2349+43095832+43674328+43859000+43677868+43395260+43140156+43087988+43327404
2334+43530920+43263856+42642876+42139168+42064616+42466368+43130148+43807772
2318+44484884+45144848+45414512+45120572+44709448+44475172+44372616+44448712
2303+44585680+44508472+44313484+44285112+44457700+44833280+45290952+45458332
2287+45381044+45523248+46060812+46807064+47413580+47633052+47518692+47359440
2272+47413252+47599232+47846160+48216964+48495556+48593540+48779536+49078796
2257+49279772+49365340+49350172+49229984+49286312+49815016+50534396+50832828
2241+50661204+50334476+50017716+49892516+49850144+49804296+49986384+50096996
2226+49849116+49732516+49752304+49369436+49099732+49558956+50032060+50022000
2210+50047764+50292504+50347112+50218832+50245012+50392232+50328984+49885968
2195+49617440+49991944+50491460+50709904+50735960+50708548+50660620+50434352
2179+50172448+50081220+50067928+50202432+50581912+50963408+51130688+51358000
2164+51934056+52417908+52019228+50619724+49502376+49954432+51071276+51305168
2149+50956948+50833848+50795144+50502816+49814576+49099884+48877096+48707528
2133+48076052+47554480+47650616+48057992+48268376+48121132+47963820+48057808
2118+48256808+48426356+48434236+48158484+47839120+47830696+47996680+48013092
2102+47871460+47697604+47700296+47944640+48200872+48367088+48454820+48318000
2087+47946976+47719076+47865916+48174724+48260828+47953140+47709776+47920464
2071+48374240+49023592+49623764+49374996+48567580+48511284+49110952+49271548
2056+49037328+49084460+49386512+49582840+49656716+49670984+49385200+48800432
2041+48688536+49449220+50296684+50761468+51004060+50760220+50082024+49658512
2025+49772900+50184784+50367584+49802280+49059940+49252100+49982060+50228792
2010+49958864+49307400+48542792+48508912+49183716+49671428+49588616+49144392
1994+48733564+48692336+49111212+49646332+49885928+50034440+50458200+51212764
1979+51819804+51421956+50468636+50306168+51255980+52598128+53397588+53875408
1963+54811680+55563848+55266100+54553996+54114680+53681484+53453640+54196640
1948+55839260+57524672+58598220+59072272+59106384+58291584+56573804+54730400
1933+53132420+51660320+50423620+49591652+49057532+48637460+48352228+48005836
1917+47431320+47044720+46956404+46848804+46631456+46386624+46250968+46351352
1902+46516428+46557280+46778892+47386440+48012188+48452300+48995820+49872528
1886+50849908+51609668+52042544+51995312+51508008+50956256+50518168+50490576
1871+51370224+53075052+54883964+56276636+56959800+56647944+55482632+53848028
1855+51990792+50254680+48951944+47948584+47037360+46118316+45164984+44539072
1840+44339676+44264972+44170896+44169012+44224112+44099032+43838436+43694740
1825+43825840+44166728+44282756+44106816+44136196+44644628+45419564+46104468
1809+46506500+46723472+46979148+47407644+47864936+48240680+48700624+49256260
1794+49619960+49497264+49063232+48464200+47473808+46206756+45067020+44077992
1778+43304800+42989916+42980880+43090516+43408464+43419496+42739588+41907948
1763+41124260+40408656+40105708+39811948+39377896+39239140+39140588+38835384
1747+38814648+39232104+39831680+40524704+41439432+42482144+43289864+43326940
1732+42739332+42109036+41361796+40639512+40058640+39755952+39764292+39614732
1717+39127416+39042592+39348880+39622064+39821224+39798864+39517196+39452460
1701+39374668+38808152+38362400+38168528+38196652+38373652+38433992+38609028
1686+38849128+38475300+38055968+38021352+38065068+38028204+37990228+38309020
1670+38721980+38701428+38568072+38461140+37974528+37334384+37101692+37321396
1655+37700396+37434300+37232660+37750636+38180956+38290736+38565776+39092884
1639+39832256+40546804+40539712+40039616+39871364+39861660+39780828+39346256
1624+38197448+36815180+36152320+35864828+35237628+34786404+34812620+34978796
1609+35036920+34912128+34661596+34267488+33937924+33790688+33677728+33565108
1593+33589600+33838016+34228236+34702268+35227188+36337896+39958180+49154220
1578+70106168+117398208+189031968+256599584+271890176+216957232+156967232
1564+118260504+98512304+88528704+77489960+68776720+63052952+58263024+54655072
1549+52207760+50694876+49675852+48675432+47145500+45322708+44544868+44721888
1533+45437056+47463600+51189292+55714048+58899112+58688952+54791268+49852924
1518+46616684+44092840+42060316+40927516+40311156+39706576+38057760+36826980
1502+36523388+36184600+35614020+34683748+33931944+33558212+33245508+32704410
1487+32247726+32244924+32648234+33972136+37213088+46016368+76516720+178059696
1472+351539040+415289376+332607008+223626608+149115104+112416600+92809248
1458+77282488+64670504+58621452+55671084+53328992+51364128+50688864+54465928
1443+76043448+134390784+213947104+234896976+178065584+132831144+110545456
1429+95762584+85918008+79490136+74548736+70388192+66001324+61566244+58824336
1414+57047076+55480860+54199484+53296080+52496392+51395236+50490252+49945060
1398+49579036+49191352+48687660+48532900+48936416+49710160+50529740+51412448
1383+52314700+52861272+52742980+51948664+50712796+49323704+48261624+47500584
1367+46943004+46654488+46362256+46028612+45990308+46491336+47469908+48957392
1352+51667628+56741988+62975196+65505668+62062924+56144524+51339432+48353216
1337+46685884+45843152+45513116+45714016+46736352+49513936+56102856+67207208
1321+77130280+77472856+69278720+60670208+55220772+52332080+51085064+50856984
1306+51328028+52405372+53725620+54451836+53930848+52447092+50969128+49998132
1290+49222604+48234808+47180096+46380956+45833996+45470456+45246416+45116072
1275+45109364+45417492+46252156+47634292+49594684+52291072+55356216+57312096
1259+57039476+55283472+53356200+51744500+50421900+49368604+48606680+48173952
1244+48115480+48396644+48930544+49588656+50138184+50407576+50442224+50228140
1229+49684264+48966996+48302344+47693156+47051268+46429868+45947688+45647880
1213+45403472+45087772+44776200+44533816+44369028+44301884+44348196+44488436
1198+44708868+45166292+46113484+47774008+50133124+52611696+54196640+54287844
1182+53377520+52535320+52429740+52897176+53225764+52797856+51689980+50524868
1167+49771728+49725896+50594220+52305588+54377876+55704696+55205700+53067692
1151+50519664+48493368+47217684+46449216+45752260+45008904+44439000+44046232
1136+43574520+43138676+42912172+42657796+42305432+41997892+41736212+41429884
1121+41090864+40818876+40609280+40346088+40012724+39760984+39637832+39772804
1105+40200332+40633000+41078504+41859748+43479656+45987076+48171248+48531880
1090+46969360+44690524+42641828+41153728+40258132+39864320+39857344+40140808
1074+40967892+42909024+47266340+57010312+75302584+99133152+124142504+159329728
1059+202906432+213936224+172556128+118898032+83828192+66234060+57637480
1045+52830336+49661328+47339008+45526368+44021204+42593752+41270544+40089060
1030+39132940+38216008+37620088+38215900+42028452+56830676+106708936+220619296
1015+354934432+361480864+248457712+153924128+109086736+90404024+85139776
1001+109738600+197846528+321235616+343092064+248471248+163591760+124361056
988+110638944+105081600+99208208+91830304+84660472+79016552+74899112+71788232
972+69415328+67816304+67138192+67317840+68091440+68359760+67324704+65236340
957+62870552+60760672+58821628+57042108+55582476+54652708+53980088+53518896
941+53591084+53679864+53217524+52414816+51930596+51870004+51910112+52004608
926+52495656+54024904+56318756+58086736+58421460+57750580+57220472+57907912
910+61117900+68096280+78706272+89737752+96267672+95600680+89249512+81165376
895+74038040+68466824+64261380+61190292+58945376+57055264+55269836+53558968
880+52071784+50878176+49940852+49279332+48802912+48339164+47830948+47638008
864+47964664+48409420+48582584+48517092+48650744+49467500+50658012+51112312
849+50593340+49897488+49598128+50248564+52074728+54400744+56645684+58481020
833+59175800+58424956+56661056+54186836+51367496+48898028+47146956+45987508
818+45192316+44551136+43994048+43442940+42691536+41836700+41135276+40577896
802+40013796+39501600+39291924+39425592+39740608+40026064+39757180+38594788
787+37167616+35961880+34743944+33625004+32861086+32368986+32060594+31777880
771+31289348+30696764+30209840+29723266+29205580+28996854+29382980+30121122
756+30705180+31134844+32102496+34306312+38277512+45235640+57377624+77826024
741+110858584+160691712+229792160+320684928+439461568+594209856+784850752
727+979504256+1073741824+959617600+725904704+517339168+379401440+295559328
714+241322960+203497456+177249520+161425952+154280688+148994576+138618144
700+125530456+117334832+118040840+127139664+142507760+168736928+227391168
687+344524928+504120320+596160576+529884160+399367616+296324992+232015952
673+193689152+171133200+155314016+142089968+135040992+129848280+124322168
660+131690800+191088464+339154624+505990784+497450080+362035744+257843072
646+202500944+172237840+154397504+141811664+131351896+127437392+130119888
633+129939120+125675200+120713936+111806720+105300984+110155592+112596720
619+100504800+84968024+86920504+113974424+141535968+142998192+122852728
606+106490688+105119232+102995976+92970384
##END=
